Sample_ID,Timestamp,EMG_Raw
0,2025-03-07 11:09:11.454,0.0
1,2025-03-07 11:09:11.504,0.0
2,2025-03-07 11:09:11.554,0.0
3,2025-03-07 11:09:11.604,0.0
4,2025-03-07 11:09:11.654,0.0
5,2025-03-07 11:09:11.705,0.0
6,2025-03-07 11:09:11.755,0.0
7,2025-03-07 11:09:11.805,0.0
8,2025-03-07 11:09:11.855,0.0
9,2025-03-07 11:09:11.905,0.0
10,2025-03-07 11:09:11.956,0.0
11,2025-03-07 11:09:12.006,0.0
12,2025-03-07 11:09:12.056,0.0
13,2025-03-07 11:09:12.106,0.0
14,2025-03-07 11:09:12.156,0.0
15,2025-03-07 11:09:12.207,0.0
16,2025-03-07 11:09:12.257,0.0
17,2025-03-07 11:09:12.307,0.0
18,2025-03-07 11:09:12.357,0.0
19,2025-03-07 11:09:12.407,0.0
20,2025-03-07 11:09:12.457,0.0
21,2025-03-07 11:09:12.508,0.0
22,2025-03-07 11:09:12.558,0.0
23,2025-03-07 11:09:12.608,0.0
24,2025-03-07 11:09:12.658,0.0
25,2025-03-07 11:09:12.709,1.0
26,2025-03-07 11:09:12.759,0.0
27,2025-03-07 11:09:12.809,0.0
28,2025-03-07 11:09:12.859,0.0
29,2025-03-07 11:09:12.909,0.0
30,2025-03-07 11:09:12.959,0.0
31,2025-03-07 11:09:13.010,0.0
32,2025-03-07 11:09:13.060,0.0
33,2025-03-07 11:09:13.110,0.0
34,2025-03-07 11:09:13.160,0.0
35,2025-03-07 11:09:13.211,0.0
36,2025-03-07 11:09:13.261,0.0
37,2025-03-07 11:09:13.311,0.0
38,2025-03-07 11:09:13.361,0.0
39,2025-03-07 11:09:13.411,0.0
40,2025-03-07 11:09:13.461,0.0
41,2025-03-07 11:09:13.511,0.0
42,2025-03-07 11:09:13.562,0.0
43,2025-03-07 11:09:13.612,0.0
44,2025-03-07 11:09:13.662,0.0
45,2025-03-07 11:09:13.712,0.0
46,2025-03-07 11:09:13.763,0.0
47,2025-03-07 11:09:13.813,0.0
48,2025-03-07 11:09:13.863,0.0
49,2025-03-07 11:09:13.913,0.0
50,2025-03-07 11:09:13.963,0.0
51,2025-03-07 11:09:14.013,0.0
52,2025-03-07 11:09:14.064,0.0
53,2025-03-07 11:09:14.114,0.0
54,2025-03-07 11:09:14.164,0.0
55,2025-03-07 11:09:14.214,0.0
56,2025-03-07 11:09:14.265,0.0
57,2025-03-07 11:09:14.315,0.0
58,2025-03-07 11:09:14.365,0.0
59,2025-03-07 11:09:14.415,0.0
60,2025-03-07 11:09:14.465,0.0
61,2025-03-07 11:09:14.515,0.0
62,2025-03-07 11:09:14.566,0.0
63,2025-03-07 11:09:14.616,0.0
64,2025-03-07 11:09:14.666,0.0
65,2025-03-07 11:09:14.716,0.0
66,2025-03-07 11:09:14.766,0.0
67,2025-03-07 11:09:14.817,0.0
68,2025-03-07 11:09:14.867,0.0
69,2025-03-07 11:09:14.917,0.0
70,2025-03-07 11:09:14.967,0.0
71,2025-03-07 11:09:15.017,0.0
72,2025-03-07 11:09:15.068,0.0
73,2025-03-07 11:09:15.118,0.0
74,2025-03-07 11:09:15.168,0.0
75,2025-03-07 11:09:15.218,0.0
76,2025-03-07 11:09:15.268,0.0
77,2025-03-07 11:09:15.319,0.0
78,2025-03-07 11:09:15.369,0.0
79,2025-03-07 11:09:15.419,0.0
80,2025-03-07 11:09:15.469,0.0
81,2025-03-07 11:09:15.519,0.0
82,2025-03-07 11:09:15.569,0.0
83,2025-03-07 11:09:15.620,0.0
84,2025-03-07 11:09:15.670,0.0
85,2025-03-07 11:09:15.720,0.0
86,2025-03-07 11:09:15.770,0.0
87,2025-03-07 11:09:15.821,0.0
88,2025-03-07 11:09:15.871,0.0
89,2025-03-07 11:09:15.921,0.0
90,2025-03-07 11:09:15.971,0.0
91,2025-03-07 11:09:16.021,0.0
92,2025-03-07 11:09:16.072,0.0
93,2025-03-07 11:09:16.122,0.0
94,2025-03-07 11:09:16.172,0.0
95,2025-03-07 11:09:16.222,0.0
96,2025-03-07 11:09:16.272,0.0
97,2025-03-07 11:09:16.322,0.0
98,2025-03-07 11:09:16.372,0.0
99,2025-03-07 11:09:16.422,0.0
100,2025-03-07 11:09:16.473,0.0
101,2025-03-07 11:09:16.523,0.0
102,2025-03-07 11:09:16.573,0.0
103,2025-03-07 11:09:16.623,0.0
104,2025-03-07 11:09:16.673,0.0
105,2025-03-07 11:09:16.724,0.0
106,2025-03-07 11:09:16.774,0.0
107,2025-03-07 11:09:16.824,0.0
108,2025-03-07 11:09:16.875,0.0
109,2025-03-07 11:09:16.925,0.0
110,2025-03-07 11:09:16.975,0.0
111,2025-03-07 11:09:17.025,0.0
112,2025-03-07 11:09:17.075,0.0
113,2025-03-07 11:09:17.125,0.0
114,2025-03-07 11:09:17.175,0.0
115,2025-03-07 11:09:17.225,0.0
116,2025-03-07 11:09:17.276,0.0
117,2025-03-07 11:09:17.326,0.0
118,2025-03-07 11:09:17.377,0.0
119,2025-03-07 11:09:17.427,0.0
120,2025-03-07 11:09:17.477,0.0
121,2025-03-07 11:09:17.527,0.0
122,2025-03-07 11:09:17.577,0.0
123,2025-03-07 11:09:17.627,0.0
124,2025-03-07 11:09:17.677,0.0
125,2025-03-07 11:09:17.728,0.0
126,2025-03-07 11:09:17.778,0.0
127,2025-03-07 11:09:17.828,0.0
128,2025-03-07 11:09:17.878,0.0
129,2025-03-07 11:09:17.929,0.0
130,2025-03-07 11:09:17.979,0.0
131,2025-03-07 11:09:18.029,1.0
132,2025-03-07 11:09:18.079,0.0
133,2025-03-07 11:09:18.129,0.0
134,2025-03-07 11:09:18.179,0.0
135,2025-03-07 11:09:18.230,1.0
136,2025-03-07 11:09:18.280,0.0
137,2025-03-07 11:09:18.330,0.0
138,2025-03-07 11:09:18.380,0.0
139,2025-03-07 11:09:18.430,0.0
140,2025-03-07 11:09:18.481,0.0
141,2025-03-07 11:09:18.531,0.0
142,2025-03-07 11:09:18.581,0.0
143,2025-03-07 11:09:18.631,0.0
144,2025-03-07 11:09:18.681,0.0
145,2025-03-07 11:09:18.732,0.0
146,2025-03-07 11:09:18.782,0.0
147,2025-03-07 11:09:18.832,0.0
148,2025-03-07 11:09:18.882,0.0
149,2025-03-07 11:09:18.933,0.0
150,2025-03-07 11:09:18.982,0.0
151,2025-03-07 11:09:19.033,0.0
152,2025-03-07 11:09:19.083,0.0
153,2025-03-07 11:09:19.133,0.0
154,2025-03-07 11:09:19.183,0.0
155,2025-03-07 11:09:19.234,0.0
156,2025-03-07 11:09:19.284,0.0
157,2025-03-07 11:09:19.334,0.0
158,2025-03-07 11:09:19.384,0.0
159,2025-03-07 11:09:19.434,0.0
160,2025-03-07 11:09:19.484,0.0
161,2025-03-07 11:09:19.535,0.0
162,2025-03-07 11:09:19.585,0.0
163,2025-03-07 11:09:19.635,0.0
164,2025-03-07 11:09:19.685,0.0
165,2025-03-07 11:09:19.735,0.0
166,2025-03-07 11:09:19.786,0.0
167,2025-03-07 11:09:19.836,0.0
168,2025-03-07 11:09:19.886,0.0
169,2025-03-07 11:09:19.936,0.0
170,2025-03-07 11:09:19.986,0.0
171,2025-03-07 11:09:20.037,0.0
172,2025-03-07 11:09:20.087,0.0
173,2025-03-07 11:09:20.137,0.0
174,2025-03-07 11:09:20.187,0.0
175,2025-03-07 11:09:20.237,0.0
176,2025-03-07 11:09:20.288,0.0
177,2025-03-07 11:09:20.338,0.0
178,2025-03-07 11:09:20.388,0.0
179,2025-03-07 11:09:20.438,0.0
180,2025-03-07 11:09:20.488,0.0
181,2025-03-07 11:09:20.539,0.0
182,2025-03-07 11:09:20.589,0.0
183,2025-03-07 11:09:20.639,0.0
184,2025-03-07 11:09:20.689,0.0
185,2025-03-07 11:09:20.740,0.0
186,2025-03-07 11:09:20.790,1.0
187,2025-03-07 11:09:20.840,0.0
188,2025-03-07 11:09:20.890,0.0
189,2025-03-07 11:09:20.940,0.0
190,2025-03-07 11:09:20.990,0.0
191,2025-03-07 11:09:21.041,0.0
192,2025-03-07 11:09:21.091,0.0
193,2025-03-07 11:09:21.141,0.0
194,2025-03-07 11:09:21.191,0.0
195,2025-03-07 11:09:21.241,0.0
196,2025-03-07 11:09:21.291,0.0
197,2025-03-07 11:09:21.341,0.0
198,2025-03-07 11:09:21.392,0.0
199,2025-03-07 11:09:21.442,0.0
200,2025-03-07 11:09:21.492,0.0
201,2025-03-07 11:09:21.543,0.0
202,2025-03-07 11:09:21.593,0.0
203,2025-03-07 11:09:21.643,0.0
204,2025-03-07 11:09:21.693,0.0
205,2025-03-07 11:09:21.743,0.0
206,2025-03-07 11:09:21.793,0.0
207,2025-03-07 11:09:21.843,0.0
208,2025-03-07 11:09:21.893,0.0
209,2025-03-07 11:09:21.944,0.0
210,2025-03-07 11:09:21.994,0.0
211,2025-03-07 11:09:22.044,0.0
212,2025-03-07 11:09:22.095,0.0
213,2025-03-07 11:09:22.145,0.0
214,2025-03-07 11:09:22.195,0.0
215,2025-03-07 11:09:22.245,0.0
216,2025-03-07 11:09:22.295,0.0
217,2025-03-07 11:09:22.346,0.0
218,2025-03-07 11:09:22.396,0.0
219,2025-03-07 11:09:22.446,0.0
220,2025-03-07 11:09:22.496,0.0
221,2025-03-07 11:09:22.546,0.0
222,2025-03-07 11:09:22.596,0.0
223,2025-03-07 11:09:22.647,0.0
224,2025-03-07 11:09:22.697,0.0
225,2025-03-07 11:09:22.747,0.0
226,2025-03-07 11:09:22.797,0.0
227,2025-03-07 11:09:22.848,0.0
228,2025-03-07 11:09:22.898,0.0
229,2025-03-07 11:09:22.948,0.0
230,2025-03-07 11:09:22.998,0.0
231,2025-03-07 11:09:23.048,0.0
232,2025-03-07 11:09:23.099,0.0
233,2025-03-07 11:09:23.149,0.0
234,2025-03-07 11:09:23.199,0.0
235,2025-03-07 11:09:23.249,0.0
236,2025-03-07 11:09:23.299,0.0
237,2025-03-07 11:09:23.349,0.0
238,2025-03-07 11:09:23.400,0.0
239,2025-03-07 11:09:23.450,0.0
240,2025-03-07 11:09:23.500,0.0
241,2025-03-07 11:09:23.550,1.0
242,2025-03-07 11:09:23.601,0.0
243,2025-03-07 11:09:23.651,0.0
244,2025-03-07 11:09:23.701,0.0
245,2025-03-07 11:09:23.751,0.0
246,2025-03-07 11:09:23.801,0.0
247,2025-03-07 11:09:23.851,1.0
248,2025-03-07 11:09:23.902,0.0
249,2025-03-07 11:09:23.952,0.0
250,2025-03-07 11:09:24.002,0.0
251,2025-03-07 11:09:24.052,0.0
252,2025-03-07 11:09:24.102,0.0
253,2025-03-07 11:09:24.153,0.0
254,2025-03-07 11:09:24.203,0.0
255,2025-03-07 11:09:24.253,0.0
256,2025-03-07 11:09:24.303,0.0
257,2025-03-07 11:09:24.353,0.0
258,2025-03-07 11:09:24.403,0.0
259,2025-03-07 11:09:24.454,0.0
260,2025-03-07 11:09:24.504,0.0
261,2025-03-07 11:09:24.554,0.0
262,2025-03-07 11:09:24.604,0.0
263,2025-03-07 11:09:24.655,0.0
264,2025-03-07 11:09:24.705,0.0
265,2025-03-07 11:09:24.755,0.0
266,2025-03-07 11:09:24.805,0.0
267,2025-03-07 11:09:24.855,0.0
268,2025-03-07 11:09:24.906,0.0
269,2025-03-07 11:09:24.956,0.0
270,2025-03-07 11:09:25.006,0.0
271,2025-03-07 11:09:25.056,0.0
272,2025-03-07 11:09:25.106,0.0
273,2025-03-07 11:09:25.157,0.0
274,2025-03-07 11:09:25.207,0.0
275,2025-03-07 11:09:25.257,0.0
276,2025-03-07 11:09:25.307,0.0
277,2025-03-07 11:09:25.357,0.0
278,2025-03-07 11:09:25.408,0.0
279,2025-03-07 11:09:25.458,0.0
280,2025-03-07 11:09:25.508,0.0
281,2025-03-07 11:09:25.558,0.0
282,2025-03-07 11:09:25.608,0.0
283,2025-03-07 11:09:25.659,0.0
284,2025-03-07 11:09:25.709,0.0
285,2025-03-07 11:09:25.759,0.0
286,2025-03-07 11:09:25.809,0.0
287,2025-03-07 11:09:25.859,0.0
288,2025-03-07 11:09:25.909,0.0
289,2025-03-07 11:09:25.959,0.0
290,2025-03-07 11:09:26.010,0.0
291,2025-03-07 11:09:26.060,0.0
292,2025-03-07 11:09:26.110,0.0
293,2025-03-07 11:09:26.160,0.0
294,2025-03-07 11:09:26.211,1.0
295,2025-03-07 11:09:26.261,0.0
296,2025-03-07 11:09:26.311,0.0
297,2025-03-07 11:09:26.361,0.0
298,2025-03-07 11:09:26.411,0.0
299,2025-03-07 11:09:26.461,0.0
300,2025-03-07 11:09:26.512,0.0
301,2025-03-07 11:09:26.562,0.0
302,2025-03-07 11:09:26.612,0.0
303,2025-03-07 11:09:26.662,0.0
304,2025-03-07 11:09:26.713,0.0
305,2025-03-07 11:09:26.763,0.0
306,2025-03-07 11:09:26.813,0.0
307,2025-03-07 11:09:26.863,0.0
308,2025-03-07 11:09:26.913,0.0
309,2025-03-07 11:09:26.964,0.0
310,2025-03-07 11:09:27.014,0.0
311,2025-03-07 11:09:27.064,0.0
312,2025-03-07 11:09:27.114,0.0
313,2025-03-07 11:09:27.164,0.0
314,2025-03-07 11:09:27.214,0.0
315,2025-03-07 11:09:27.265,0.0
316,2025-03-07 11:09:27.315,0.0
317,2025-03-07 11:09:27.365,0.0
318,2025-03-07 11:09:27.415,0.0
319,2025-03-07 11:09:27.466,0.0
320,2025-03-07 11:09:27.516,0.0
321,2025-03-07 11:09:27.566,0.0
322,2025-03-07 11:09:27.616,0.0
323,2025-03-07 11:09:27.666,0.0
324,2025-03-07 11:09:27.716,0.0
325,2025-03-07 11:09:27.767,0.0
326,2025-03-07 11:09:27.817,0.0
327,2025-03-07 11:09:27.867,0.0
328,2025-03-07 11:09:27.917,0.0
329,2025-03-07 11:09:27.967,0.0
330,2025-03-07 11:09:28.018,0.0
331,2025-03-07 11:09:28.068,0.0
332,2025-03-07 11:09:28.118,0.0
333,2025-03-07 11:09:28.168,0.0
334,2025-03-07 11:09:28.218,0.0
335,2025-03-07 11:09:28.268,0.0
336,2025-03-07 11:09:28.319,0.0
337,2025-03-07 11:09:28.369,0.0
338,2025-03-07 11:09:28.419,0.0
339,2025-03-07 11:09:28.469,0.0
340,2025-03-07 11:09:28.520,0.0
341,2025-03-07 11:09:28.570,0.0
342,2025-03-07 11:09:28.620,0.0
343,2025-03-07 11:09:28.670,0.0
344,2025-03-07 11:09:28.720,0.0
345,2025-03-07 11:09:28.770,0.0
346,2025-03-07 11:09:28.820,0.0
347,2025-03-07 11:09:28.871,0.0
348,2025-03-07 11:09:28.921,0.0
349,2025-03-07 11:09:28.971,0.0
350,2025-03-07 11:09:29.022,0.0
351,2025-03-07 11:09:29.072,0.0
352,2025-03-07 11:09:29.122,0.0
353,2025-03-07 11:09:29.172,1.0
354,2025-03-07 11:09:29.222,0.0
355,2025-03-07 11:09:29.272,0.0
356,2025-03-07 11:09:29.323,0.0
357,2025-03-07 11:09:29.373,0.0
358,2025-03-07 11:09:29.423,0.0
359,2025-03-07 11:09:29.473,0.0
360,2025-03-07 11:09:29.523,0.0
361,2025-03-07 11:09:29.574,0.0
362,2025-03-07 11:09:29.624,0.0
363,2025-03-07 11:09:29.674,0.0
364,2025-03-07 11:09:29.724,0.0
365,2025-03-07 11:09:29.774,0.0
366,2025-03-07 11:09:29.825,0.0
367,2025-03-07 11:09:29.875,0.0
368,2025-03-07 11:09:29.925,0.0
369,2025-03-07 11:09:29.975,0.0
370,2025-03-07 11:09:30.025,0.0
371,2025-03-07 11:09:30.075,0.0
372,2025-03-07 11:09:30.126,0.0
373,2025-03-07 11:09:30.176,0.0
374,2025-03-07 11:09:30.226,0.0
375,2025-03-07 11:09:30.276,0.0
376,2025-03-07 11:09:30.326,0.0
377,2025-03-07 11:09:30.377,0.0
378,2025-03-07 11:09:30.427,0.0
379,2025-03-07 11:09:30.477,0.0
380,2025-03-07 11:09:30.527,0.0
381,2025-03-07 11:09:30.577,0.0
382,2025-03-07 11:09:30.628,0.0
383,2025-03-07 11:09:30.678,0.0
384,2025-03-07 11:09:30.728,0.0
385,2025-03-07 11:09:30.778,0.0
386,2025-03-07 11:09:30.828,0.0
387,2025-03-07 11:09:30.878,0.0
388,2025-03-07 11:09:30.929,0.0
389,2025-03-07 11:09:30.979,0.0
390,2025-03-07 11:09:31.029,0.0
391,2025-03-07 11:09:31.079,0.0
392,2025-03-07 11:09:31.130,0.0
393,2025-03-07 11:09:31.180,0.0
394,2025-03-07 11:09:31.230,0.0
395,2025-03-07 11:09:31.280,0.0
396,2025-03-07 11:09:31.330,0.0
397,2025-03-07 11:09:31.380,0.0
398,2025-03-07 11:09:31.431,0.0
399,2025-03-07 11:09:31.481,0.0
400,2025-03-07 11:09:31.531,0.0
401,2025-03-07 11:09:31.581,0.0
402,2025-03-07 11:09:31.632,0.0
403,2025-03-07 11:09:31.682,0.0
404,2025-03-07 11:09:31.732,0.0
405,2025-03-07 11:09:31.782,0.0
406,2025-03-07 11:09:31.832,0.0
407,2025-03-07 11:09:31.882,0.0
408,2025-03-07 11:09:31.932,0.0
409,2025-03-07 11:09:31.983,0.0
410,2025-03-07 11:09:32.033,0.0
411,2025-03-07 11:09:32.083,0.0
412,2025-03-07 11:09:32.133,0.0
413,2025-03-07 11:09:32.184,0.0
414,2025-03-07 11:09:32.234,1.0
415,2025-03-07 11:09:32.284,0.0
416,2025-03-07 11:09:32.334,0.0
417,2025-03-07 11:09:32.384,0.0
418,2025-03-07 11:09:32.434,0.0
419,2025-03-07 11:09:32.485,0.0
420,2025-03-07 11:09:32.535,0.0
421,2025-03-07 11:09:32.585,0.0
422,2025-03-07 11:09:32.635,0.0
423,2025-03-07 11:09:32.685,0.0
424,2025-03-07 11:09:32.736,0.0
425,2025-03-07 11:09:32.786,0.0
426,2025-03-07 11:09:32.836,0.0
427,2025-03-07 11:09:32.886,0.0
428,2025-03-07 11:09:32.936,0.0
429,2025-03-07 11:09:32.987,0.0
430,2025-03-07 11:09:33.037,0.0
431,2025-03-07 11:09:33.087,0.0
432,2025-03-07 11:09:33.137,0.0
433,2025-03-07 11:09:33.187,0.0
434,2025-03-07 11:09:33.237,0.0
435,2025-03-07 11:09:33.288,0.0
436,2025-03-07 11:09:33.338,0.0
437,2025-03-07 11:09:33.388,0.0
438,2025-03-07 11:09:33.438,0.0
439,2025-03-07 11:09:33.489,0.0
440,2025-03-07 11:09:33.539,0.0
441,2025-03-07 11:09:33.589,0.0
442,2025-03-07 11:09:33.639,0.0
443,2025-03-07 11:09:33.689,0.0
444,2025-03-07 11:09:33.739,0.0
445,2025-03-07 11:09:33.790,0.0
446,2025-03-07 11:09:33.840,0.0
447,2025-03-07 11:09:33.890,0.0
448,2025-03-07 11:09:33.940,0.0
449,2025-03-07 11:09:33.990,0.0
450,2025-03-07 11:09:34.041,0.0
451,2025-03-07 11:09:34.091,0.0
452,2025-03-07 11:09:34.141,0.0
453,2025-03-07 11:09:34.191,0.0
454,2025-03-07 11:09:34.241,0.0
455,2025-03-07 11:09:34.292,0.0
456,2025-03-07 11:09:34.342,0.0
457,2025-03-07 11:09:34.392,0.0
458,2025-03-07 11:09:34.442,0.0
459,2025-03-07 11:09:34.492,0.0
460,2025-03-07 11:09:34.543,0.0
461,2025-03-07 11:09:34.593,0.0
462,2025-03-07 11:09:34.643,0.0
463,2025-03-07 11:09:34.693,1.0
464,2025-03-07 11:09:34.743,0.0
465,2025-03-07 11:09:34.793,0.0
466,2025-03-07 11:09:34.844,0.0
467,2025-03-07 11:09:34.894,0.0
468,2025-03-07 11:09:34.944,0.0
469,2025-03-07 11:09:34.994,0.0
470,2025-03-07 11:09:35.044,0.0
471,2025-03-07 11:09:35.094,0.0
472,2025-03-07 11:09:35.145,0.0
473,2025-03-07 11:09:35.195,0.0
474,2025-03-07 11:09:35.245,0.0
475,2025-03-07 11:09:35.295,0.0
476,2025-03-07 11:09:35.346,0.0
477,2025-03-07 11:09:35.396,0.0
478,2025-03-07 11:09:35.446,0.0
479,2025-03-07 11:09:35.496,0.0
480,2025-03-07 11:09:35.546,0.0
481,2025-03-07 11:09:35.596,0.0
482,2025-03-07 11:09:35.646,0.0
483,2025-03-07 11:09:35.697,0.0
484,2025-03-07 11:09:35.747,0.0
485,2025-03-07 11:09:35.797,0.0
486,2025-03-07 11:09:35.847,0.0
487,2025-03-07 11:09:35.898,0.0
488,2025-03-07 11:09:35.948,0.0
489,2025-03-07 11:09:35.998,0.0
490,2025-03-07 11:09:36.048,0.0
491,2025-03-07 11:09:36.098,0.0
492,2025-03-07 11:09:36.149,0.0
493,2025-03-07 11:09:36.199,0.0
494,2025-03-07 11:09:36.249,0.0
495,2025-03-07 11:09:36.299,0.0
496,2025-03-07 11:09:36.349,0.0
497,2025-03-07 11:09:36.400,0.0
498,2025-03-07 11:09:36.450,0.0
499,2025-03-07 11:09:36.500,0.0
500,2025-03-07 11:09:36.550,0.0
501,2025-03-07 11:09:36.600,0.0
502,2025-03-07 11:09:36.651,0.0
503,2025-03-07 11:09:36.701,0.0
504,2025-03-07 11:09:36.751,0.0
505,2025-03-07 11:09:36.801,0.0
506,2025-03-07 11:09:36.851,0.0
507,2025-03-07 11:09:36.902,0.0
508,2025-03-07 11:09:36.952,0.0
509,2025-03-07 11:09:37.002,0.0
510,2025-03-07 11:09:37.052,0.0
511,2025-03-07 11:09:37.103,0.0
512,2025-03-07 11:09:37.152,0.0
513,2025-03-07 11:09:37.203,0.0
514,2025-03-07 11:09:37.253,0.0
515,2025-03-07 11:09:37.303,0.0
516,2025-03-07 11:09:37.353,0.0
517,2025-03-07 11:09:37.403,0.0
518,2025-03-07 11:09:37.454,1.0
519,2025-03-07 11:09:37.504,0.0
520,2025-03-07 11:09:37.554,0.0
521,2025-03-07 11:09:37.604,0.0
522,2025-03-07 11:09:37.655,1.0
523,2025-03-07 11:09:37.705,0.0
524,2025-03-07 11:09:37.755,0.0
525,2025-03-07 11:09:37.805,0.0
526,2025-03-07 11:09:37.855,0.0
527,2025-03-07 11:09:37.905,0.0
528,2025-03-07 11:09:37.956,0.0
529,2025-03-07 11:09:38.006,0.0
530,2025-03-07 11:09:38.056,0.0
531,2025-03-07 11:09:38.106,0.0
532,2025-03-07 11:09:38.156,0.0
533,2025-03-07 11:09:38.207,0.0
534,2025-03-07 11:09:38.257,0.0
535,2025-03-07 11:09:38.307,0.0
536,2025-03-07 11:09:38.357,0.0
537,2025-03-07 11:09:38.407,0.0
538,2025-03-07 11:09:38.458,0.0
539,2025-03-07 11:09:38.508,0.0
540,2025-03-07 11:09:38.558,0.0
541,2025-03-07 11:09:38.608,0.0
542,2025-03-07 11:09:38.658,0.0
543,2025-03-07 11:09:38.708,0.0
544,2025-03-07 11:09:38.759,0.0
545,2025-03-07 11:09:38.809,0.0
546,2025-03-07 11:09:38.859,0.0
547,2025-03-07 11:09:38.909,0.0
548,2025-03-07 11:09:38.960,0.0
549,2025-03-07 11:09:39.010,0.0
550,2025-03-07 11:09:39.060,0.0
551,2025-03-07 11:09:39.110,0.0
552,2025-03-07 11:09:39.160,0.0
553,2025-03-07 11:09:39.210,0.0
554,2025-03-07 11:09:39.260,0.0
555,2025-03-07 11:09:39.311,0.0
556,2025-03-07 11:09:39.361,0.0
557,2025-03-07 11:09:39.411,0.0
558,2025-03-07 11:09:39.461,0.0
559,2025-03-07 11:09:39.512,0.0
560,2025-03-07 11:09:39.562,0.0
561,2025-03-07 11:09:39.612,0.0
562,2025-03-07 11:09:39.662,0.0
563,2025-03-07 11:09:39.712,0.0
564,2025-03-07 11:09:39.762,0.0
565,2025-03-07 11:09:39.813,0.0
566,2025-03-07 11:09:39.863,0.0
567,2025-03-07 11:09:39.913,0.0
568,2025-03-07 11:09:39.963,0.0
569,2025-03-07 11:09:40.013,0.0
570,2025-03-07 11:09:40.064,0.0
571,2025-03-07 11:09:40.114,0.0
572,2025-03-07 11:09:40.164,0.0
573,2025-03-07 11:09:40.214,0.0
574,2025-03-07 11:09:40.264,0.0
575,2025-03-07 11:09:40.315,0.0
576,2025-03-07 11:09:40.365,0.0
577,2025-03-07 11:09:40.415,0.0
578,2025-03-07 11:09:40.465,0.0
579,2025-03-07 11:09:40.515,0.0
580,2025-03-07 11:09:40.566,0.0
581,2025-03-07 11:09:40.616,0.0
582,2025-03-07 11:09:40.666,0.0
583,2025-03-07 11:09:40.716,0.0
584,2025-03-07 11:09:40.766,0.0
585,2025-03-07 11:09:40.817,0.0
586,2025-03-07 11:09:40.867,0.0
587,2025-03-07 11:09:40.917,0.0
588,2025-03-07 11:09:40.967,0.0
589,2025-03-07 11:09:41.017,0.0
590,2025-03-07 11:09:41.067,0.0
591,2025-03-07 11:09:41.118,0.0
592,2025-03-07 11:09:41.168,0.0
593,2025-03-07 11:09:41.218,0.0
594,2025-03-07 11:09:41.268,0.0
595,2025-03-07 11:09:41.319,0.0
596,2025-03-07 11:09:41.369,0.0
597,2025-03-07 11:09:41.419,0.0
598,2025-03-07 11:09:41.469,0.0
599,2025-03-07 11:09:41.519,0.0
600,2025-03-07 11:09:41.569,0.0
601,2025-03-07 11:09:41.620,0.0
602,2025-03-07 11:09:41.670,0.0
603,2025-03-07 11:09:41.720,0.0
604,2025-03-07 11:09:41.770,0.0
605,2025-03-07 11:09:41.820,0.0
606,2025-03-07 11:09:41.871,0.0
607,2025-03-07 11:09:41.921,0.0
608,2025-03-07 11:09:41.971,0.0
609,2025-03-07 11:09:42.021,0.0
610,2025-03-07 11:09:42.071,0.0
611,2025-03-07 11:09:42.122,0.0
612,2025-03-07 11:09:42.172,0.0
613,2025-03-07 11:09:42.222,0.0
614,2025-03-07 11:09:42.272,0.0
615,2025-03-07 11:09:42.322,0.0
616,2025-03-07 11:09:42.373,0.0
617,2025-03-07 11:09:42.423,0.0
618,2025-03-07 11:09:42.473,0.0
619,2025-03-07 11:09:42.523,0.0
620,2025-03-07 11:09:42.573,0.0
621,2025-03-07 11:09:42.624,0.0
622,2025-03-07 11:09:42.674,0.0
623,2025-03-07 11:09:42.724,0.0
624,2025-03-07 11:09:42.774,0.0
625,2025-03-07 11:09:42.824,0.0
626,2025-03-07 11:09:42.874,1.0
627,2025-03-07 11:09:42.925,0.0
628,2025-03-07 11:09:42.975,0.0
629,2025-03-07 11:09:43.025,0.0
630,2025-03-07 11:09:43.075,0.0
631,2025-03-07 11:09:43.126,0.0
632,2025-03-07 11:09:43.176,0.0
633,2025-03-07 11:09:43.226,0.0
634,2025-03-07 11:09:43.276,0.0
635,2025-03-07 11:09:43.326,0.0
636,2025-03-07 11:09:43.376,0.0
637,2025-03-07 11:09:43.426,0.0
638,2025-03-07 11:09:43.477,0.0
639,2025-03-07 11:09:43.527,0.0
640,2025-03-07 11:09:43.577,0.0
641,2025-03-07 11:09:43.627,0.0
642,2025-03-07 11:09:43.677,0.0
643,2025-03-07 11:09:43.728,0.0
644,2025-03-07 11:09:43.778,0.0
645,2025-03-07 11:09:43.828,0.0
646,2025-03-07 11:09:43.878,0.0
647,2025-03-07 11:09:43.929,0.0
648,2025-03-07 11:09:43.979,0.0
649,2025-03-07 11:09:44.029,0.0
650,2025-03-07 11:09:44.079,0.0
651,2025-03-07 11:09:44.129,0.0
652,2025-03-07 11:09:44.179,0.0
653,2025-03-07 11:09:44.230,0.0
654,2025-03-07 11:09:44.280,0.0
655,2025-03-07 11:09:44.330,0.0
656,2025-03-07 11:09:44.380,0.0
657,2025-03-07 11:09:44.430,0.0
658,2025-03-07 11:09:44.481,0.0
659,2025-03-07 11:09:44.531,0.0
660,2025-03-07 11:09:44.581,0.0
661,2025-03-07 11:09:44.631,0.0
662,2025-03-07 11:09:44.681,0.0
663,2025-03-07 11:09:44.732,0.0
664,2025-03-07 11:09:44.782,0.0
665,2025-03-07 11:09:44.832,0.0
666,2025-03-07 11:09:44.882,0.0
667,2025-03-07 11:09:44.932,0.0
668,2025-03-07 11:09:44.983,0.0
669,2025-03-07 11:09:45.033,0.0
670,2025-03-07 11:09:45.083,0.0
671,2025-03-07 11:09:45.133,0.0
672,2025-03-07 11:09:45.183,0.0
673,2025-03-07 11:09:45.233,0.0
674,2025-03-07 11:09:45.284,0.0
675,2025-03-07 11:09:45.334,0.0
676,2025-03-07 11:09:45.384,0.0
677,2025-03-07 11:09:45.434,0.0
678,2025-03-07 11:09:45.485,0.0
679,2025-03-07 11:09:45.535,0.0
680,2025-03-07 11:09:45.585,0.0
681,2025-03-07 11:09:45.635,0.0
682,2025-03-07 11:09:45.685,0.0
683,2025-03-07 11:09:45.735,1.0
684,2025-03-07 11:09:45.786,0.0
685,2025-03-07 11:09:45.836,0.0
686,2025-03-07 11:09:45.886,0.0
687,2025-03-07 11:09:45.936,0.0
688,2025-03-07 11:09:45.986,0.0
689,2025-03-07 11:09:46.037,0.0
690,2025-03-07 11:09:46.087,0.0
691,2025-03-07 11:09:46.137,0.0
692,2025-03-07 11:09:46.187,0.0
693,2025-03-07 11:09:46.237,0.0
694,2025-03-07 11:09:46.288,0.0
695,2025-03-07 11:09:46.338,0.0
696,2025-03-07 11:09:46.388,0.0
697,2025-03-07 11:09:46.438,0.0
698,2025-03-07 11:09:46.488,0.0
699,2025-03-07 11:09:46.538,0.0
700,2025-03-07 11:09:46.589,0.0
701,2025-03-07 11:09:46.639,0.0
702,2025-03-07 11:09:46.689,0.0
703,2025-03-07 11:09:46.739,0.0
704,2025-03-07 11:09:46.789,0.0
705,2025-03-07 11:09:46.839,0.0
706,2025-03-07 11:09:46.890,0.0
707,2025-03-07 11:09:46.940,0.0
708,2025-03-07 11:09:46.990,0.0
709,2025-03-07 11:09:47.040,0.0
710,2025-03-07 11:09:47.091,0.0
711,2025-03-07 11:09:47.141,0.0
712,2025-03-07 11:09:47.191,0.0
713,2025-03-07 11:09:47.241,0.0
714,2025-03-07 11:09:47.291,0.0
715,2025-03-07 11:09:47.341,0.0
716,2025-03-07 11:09:47.392,0.0
717,2025-03-07 11:09:47.442,0.0
718,2025-03-07 11:09:47.492,0.0
719,2025-03-07 11:09:47.542,0.0
720,2025-03-07 11:09:47.593,0.0
721,2025-03-07 11:09:47.643,0.0
722,2025-03-07 11:09:47.693,0.0
723,2025-03-07 11:09:47.743,0.0
724,2025-03-07 11:09:47.793,0.0
725,2025-03-07 11:09:47.843,0.0
726,2025-03-07 11:09:47.893,0.0
727,2025-03-07 11:09:47.944,0.0
728,2025-03-07 11:09:47.994,0.0
729,2025-03-07 11:09:48.044,0.0
730,2025-03-07 11:09:48.094,0.0
731,2025-03-07 11:09:48.145,0.0
732,2025-03-07 11:09:48.195,1.0
733,2025-03-07 11:09:48.245,0.0
734,2025-03-07 11:09:48.295,0.0
735,2025-03-07 11:09:48.345,0.0
736,2025-03-07 11:09:48.396,1.0
737,2025-03-07 11:09:48.446,0.0
738,2025-03-07 11:09:48.496,1.0
739,2025-03-07 11:09:48.546,0.0
740,2025-03-07 11:09:48.596,0.0
741,2025-03-07 11:09:48.646,0.0
742,2025-03-07 11:09:48.697,0.0
743,2025-03-07 11:09:48.747,0.0
744,2025-03-07 11:09:48.797,0.0
745,2025-03-07 11:09:48.847,0.0
746,2025-03-07 11:09:48.897,0.0
747,2025-03-07 11:09:48.947,0.0
748,2025-03-07 11:09:48.998,0.0
749,2025-03-07 11:09:49.048,0.0
750,2025-03-07 11:09:49.098,0.0
751,2025-03-07 11:09:49.148,0.0
752,2025-03-07 11:09:49.198,0.0
753,2025-03-07 11:09:49.249,0.0
754,2025-03-07 11:09:49.299,0.0
755,2025-03-07 11:09:49.349,0.0
756,2025-03-07 11:09:49.399,0.0
757,2025-03-07 11:09:49.449,0.0
758,2025-03-07 11:09:49.500,0.0
759,2025-03-07 11:09:49.550,0.0
760,2025-03-07 11:09:49.600,0.0
761,2025-03-07 11:09:49.650,0.0
762,2025-03-07 11:09:49.700,0.0
763,2025-03-07 11:09:49.751,0.0
764,2025-03-07 11:09:49.801,0.0
765,2025-03-07 11:09:49.851,0.0
766,2025-03-07 11:09:49.901,0.0
767,2025-03-07 11:09:49.952,0.0
768,2025-03-07 11:09:50.002,0.0
769,2025-03-07 11:09:50.052,0.0
770,2025-03-07 11:09:50.102,0.0
771,2025-03-07 11:09:50.152,0.0
772,2025-03-07 11:09:50.202,0.0
773,2025-03-07 11:09:50.253,0.0
774,2025-03-07 11:09:50.303,0.0
775,2025-03-07 11:09:50.353,0.0
776,2025-03-07 11:09:50.403,0.0
777,2025-03-07 11:09:50.453,0.0
778,2025-03-07 11:09:50.504,0.0
779,2025-03-07 11:09:50.554,0.0
780,2025-03-07 11:09:50.604,0.0
781,2025-03-07 11:09:50.654,0.0
782,2025-03-07 11:09:50.704,0.0
783,2025-03-07 11:09:50.754,1.0
784,2025-03-07 11:09:50.805,0.0
785,2025-03-07 11:09:50.855,0.0
786,2025-03-07 11:09:50.905,0.0
787,2025-03-07 11:09:50.955,0.0
788,2025-03-07 11:09:51.006,0.0
789,2025-03-07 11:09:51.056,0.0
790,2025-03-07 11:09:51.106,0.0
791,2025-03-07 11:09:51.156,0.0
792,2025-03-07 11:09:51.206,0.0
793,2025-03-07 11:09:51.257,0.0
794,2025-03-07 11:09:51.306,0.0
795,2025-03-07 11:09:51.356,0.0
796,2025-03-07 11:09:51.407,0.0
797,2025-03-07 11:09:51.457,0.0
798,2025-03-07 11:09:51.507,0.0
799,2025-03-07 11:09:51.557,0.0
800,2025-03-07 11:09:51.607,0.0
801,2025-03-07 11:09:51.658,0.0
802,2025-03-07 11:09:51.708,0.0
803,2025-03-07 11:09:51.759,0.0
804,2025-03-07 11:09:51.809,0.0
805,2025-03-07 11:09:51.859,0.0
806,2025-03-07 11:09:51.909,0.0
807,2025-03-07 11:09:51.959,0.0
808,2025-03-07 11:09:52.009,0.0
809,2025-03-07 11:09:52.060,0.0
810,2025-03-07 11:09:52.110,0.0
811,2025-03-07 11:09:52.160,0.0
812,2025-03-07 11:09:52.210,0.0
813,2025-03-07 11:09:52.260,0.0
814,2025-03-07 11:09:52.310,0.0
815,2025-03-07 11:09:52.360,0.0
816,2025-03-07 11:09:52.411,0.0
817,2025-03-07 11:09:52.461,0.0
818,2025-03-07 11:09:52.511,0.0
819,2025-03-07 11:09:52.561,0.0
820,2025-03-07 11:09:52.611,0.0
821,2025-03-07 11:09:52.662,0.0
822,2025-03-07 11:09:52.712,0.0
823,2025-03-07 11:09:52.762,0.0
824,2025-03-07 11:09:52.812,0.0
825,2025-03-07 11:09:52.862,0.0
826,2025-03-07 11:09:52.913,0.0
827,2025-03-07 11:09:52.963,0.0
828,2025-03-07 11:09:53.013,0.0
829,2025-03-07 11:09:53.063,0.0
830,2025-03-07 11:09:53.113,0.0
831,2025-03-07 11:09:53.164,0.0
832,2025-03-07 11:09:53.213,0.0
833,2025-03-07 11:09:53.264,0.0
834,2025-03-07 11:09:53.314,1.0
835,2025-03-07 11:09:53.364,0.0
836,2025-03-07 11:09:53.414,0.0
837,2025-03-07 11:09:53.465,0.0
838,2025-03-07 11:09:53.515,0.0
839,2025-03-07 11:09:53.565,0.0
840,2025-03-07 11:09:53.615,1.0
841,2025-03-07 11:09:53.666,0.0
842,2025-03-07 11:09:53.716,0.0
843,2025-03-07 11:09:53.766,0.0
844,2025-03-07 11:09:53.816,0.0
845,2025-03-07 11:09:53.866,0.0
846,2025-03-07 11:09:53.916,0.0
847,2025-03-07 11:09:53.966,0.0
848,2025-03-07 11:09:54.017,0.0
849,2025-03-07 11:09:54.067,0.0
850,2025-03-07 11:09:54.117,0.0
851,2025-03-07 11:09:54.167,0.0
852,2025-03-07 11:09:54.218,0.0
853,2025-03-07 11:09:54.268,0.0
854,2025-03-07 11:09:54.318,0.0
855,2025-03-07 11:09:54.368,0.0
856,2025-03-07 11:09:54.418,0.0
857,2025-03-07 11:09:54.469,0.0
858,2025-03-07 11:09:54.519,0.0
859,2025-03-07 11:09:54.569,0.0
860,2025-03-07 11:09:54.619,0.0
861,2025-03-07 11:09:54.669,0.0
862,2025-03-07 11:09:54.719,0.0
863,2025-03-07 11:09:54.770,0.0
864,2025-03-07 11:09:54.820,0.0
865,2025-03-07 11:09:54.870,0.0
866,2025-03-07 11:09:54.920,0.0
867,2025-03-07 11:09:54.971,0.0
868,2025-03-07 11:09:55.021,0.0
869,2025-03-07 11:09:55.071,0.0
870,2025-03-07 11:09:55.121,0.0
871,2025-03-07 11:09:55.171,0.0
872,2025-03-07 11:09:55.222,0.0
873,2025-03-07 11:09:55.272,0.0
874,2025-03-07 11:09:55.322,0.0
875,2025-03-07 11:09:55.372,0.0
876,2025-03-07 11:09:55.422,0.0
877,2025-03-07 11:09:55.473,0.0
878,2025-03-07 11:09:55.523,0.0
879,2025-03-07 11:09:55.573,0.0
880,2025-03-07 11:09:55.623,0.0
881,2025-03-07 11:09:55.673,0.0
882,2025-03-07 11:09:55.723,0.0
883,2025-03-07 11:09:55.774,0.0
884,2025-03-07 11:09:55.824,0.0
885,2025-03-07 11:09:55.874,0.0
886,2025-03-07 11:09:55.924,0.0
887,2025-03-07 11:09:55.974,0.0
888,2025-03-07 11:09:56.025,0.0
889,2025-03-07 11:09:56.075,0.0
890,2025-03-07 11:09:56.125,0.0
891,2025-03-07 11:09:56.175,0.0
892,2025-03-07 11:09:56.225,0.0
893,2025-03-07 11:09:56.276,0.0
894,2025-03-07 11:09:56.326,0.0
895,2025-03-07 11:09:56.376,0.0
896,2025-03-07 11:09:56.426,0.0
897,2025-03-07 11:09:56.476,0.0
898,2025-03-07 11:09:56.527,0.0
899,2025-03-07 11:09:56.577,0.0
900,2025-03-07 11:09:56.627,0.0
901,2025-03-07 11:09:56.677,0.0
902,2025-03-07 11:09:56.727,0.0
903,2025-03-07 11:09:56.777,0.0
904,2025-03-07 11:09:56.828,0.0
905,2025-03-07 11:09:56.878,0.0
906,2025-03-07 11:09:56.928,0.0
907,2025-03-07 11:09:56.978,0.0
908,2025-03-07 11:09:57.028,0.0
909,2025-03-07 11:09:57.079,0.0
910,2025-03-07 11:09:57.129,0.0
911,2025-03-07 11:09:57.179,0.0
912,2025-03-07 11:09:57.229,0.0
913,2025-03-07 11:09:57.279,0.0
914,2025-03-07 11:09:57.330,0.0
915,2025-03-07 11:09:57.380,0.0
916,2025-03-07 11:09:57.430,0.0
917,2025-03-07 11:09:57.480,0.0
918,2025-03-07 11:09:57.530,0.0
919,2025-03-07 11:09:57.580,0.0
920,2025-03-07 11:09:57.631,0.0
921,2025-03-07 11:09:57.681,0.0
922,2025-03-07 11:09:57.732,0.0
923,2025-03-07 11:09:57.781,0.0
924,2025-03-07 11:09:57.832,0.0
925,2025-03-07 11:09:57.882,0.0
926,2025-03-07 11:09:57.932,0.0
927,2025-03-07 11:09:57.982,0.0
928,2025-03-07 11:09:58.032,0.0
929,2025-03-07 11:09:58.082,0.0
930,2025-03-07 11:09:58.133,0.0
931,2025-03-07 11:09:58.183,0.0
932,2025-03-07 11:09:58.233,0.0
933,2025-03-07 11:09:58.283,0.0
934,2025-03-07 11:09:58.333,0.0
935,2025-03-07 11:09:58.384,0.0
936,2025-03-07 11:09:58.434,0.0
937,2025-03-07 11:09:58.484,0.0
938,2025-03-07 11:09:58.534,0.0
939,2025-03-07 11:09:58.585,0.0
940,2025-03-07 11:09:58.634,0.0
941,2025-03-07 11:09:58.685,0.0
942,2025-03-07 11:09:58.735,1.0
943,2025-03-07 11:09:58.785,0.0
944,2025-03-07 11:09:58.835,1.0
945,2025-03-07 11:09:58.885,0.0
946,2025-03-07 11:09:58.936,0.0
947,2025-03-07 11:09:58.986,0.0
948,2025-03-07 11:09:59.036,0.0
949,2025-03-07 11:09:59.086,0.0
950,2025-03-07 11:09:59.137,0.0
951,2025-03-07 11:09:59.187,0.0
952,2025-03-07 11:09:59.237,0.0
953,2025-03-07 11:09:59.287,0.0
954,2025-03-07 11:09:59.337,0.0
955,2025-03-07 11:09:59.388,0.0
956,2025-03-07 11:09:59.438,0.0
957,2025-03-07 11:09:59.488,0.0
958,2025-03-07 11:09:59.538,0.0
959,2025-03-07 11:09:59.588,0.0
960,2025-03-07 11:09:59.639,0.0
961,2025-03-07 11:09:59.689,0.0
962,2025-03-07 11:09:59.739,0.0
963,2025-03-07 11:09:59.789,0.0
964,2025-03-07 11:09:59.839,0.0
965,2025-03-07 11:09:59.889,0.0
966,2025-03-07 11:09:59.940,0.0
967,2025-03-07 11:09:59.990,0.0
968,2025-03-07 11:10:00.040,0.0
969,2025-03-07 11:10:00.090,0.0
970,2025-03-07 11:10:00.140,0.0
971,2025-03-07 11:10:00.191,0.0
972,2025-03-07 11:10:00.241,0.0
973,2025-03-07 11:10:00.291,0.0
974,2025-03-07 11:10:00.341,0.0
975,2025-03-07 11:10:00.391,0.0
976,2025-03-07 11:10:00.442,0.0
977,2025-03-07 11:10:00.492,0.0
978,2025-03-07 11:10:00.542,0.0
979,2025-03-07 11:10:00.592,0.0
980,2025-03-07 11:10:00.642,0.0
981,2025-03-07 11:10:00.692,0.0
982,2025-03-07 11:10:00.743,0.0
983,2025-03-07 11:10:00.793,0.0
984,2025-03-07 11:10:00.843,0.0
985,2025-03-07 11:10:00.893,0.0
986,2025-03-07 11:10:00.943,0.0
987,2025-03-07 11:10:00.993,0.0
988,2025-03-07 11:10:01.044,0.0
989,2025-03-07 11:10:01.094,0.0
990,2025-03-07 11:10:01.144,0.0
991,2025-03-07 11:10:01.194,0.0
992,2025-03-07 11:10:01.244,0.0
993,2025-03-07 11:10:01.295,0.0
994,2025-03-07 11:10:01.345,0.0
995,2025-03-07 11:10:01.395,1.0
996,2025-03-07 11:10:01.445,0.0
997,2025-03-07 11:10:01.495,1.0
998,2025-03-07 11:10:01.546,0.0
999,2025-03-07 11:10:01.596,0.0
1000,2025-03-07 11:10:01.646,0.0
1001,2025-03-07 11:10:01.696,0.0
1002,2025-03-07 11:10:01.746,0.0
1003,2025-03-07 11:10:01.797,0.0
1004,2025-03-07 11:10:01.847,0.0
1005,2025-03-07 11:10:01.897,0.0
1006,2025-03-07 11:10:01.947,0.0
1007,2025-03-07 11:10:01.997,0.0
1008,2025-03-07 11:10:02.047,0.0
1009,2025-03-07 11:10:02.098,0.0
1010,2025-03-07 11:10:02.148,0.0
1011,2025-03-07 11:10:02.198,0.0
1012,2025-03-07 11:10:02.248,0.0
1013,2025-03-07 11:10:02.299,0.0
1014,2025-03-07 11:10:02.349,0.0
1015,2025-03-07 11:10:02.399,0.0
1016,2025-03-07 11:10:02.449,0.0
1017,2025-03-07 11:10:02.499,0.0
1018,2025-03-07 11:10:02.549,0.0
1019,2025-03-07 11:10:02.600,0.0
1020,2025-03-07 11:10:02.650,0.0
1021,2025-03-07 11:10:02.700,0.0
1022,2025-03-07 11:10:02.750,0.0
1023,2025-03-07 11:10:02.800,0.0
1024,2025-03-07 11:10:02.850,0.0
1025,2025-03-07 11:10:02.901,0.0
1026,2025-03-07 11:10:02.951,0.0
1027,2025-03-07 11:10:03.001,0.0
1028,2025-03-07 11:10:03.051,0.0
1029,2025-03-07 11:10:03.101,0.0
1030,2025-03-07 11:10:03.152,0.0
1031,2025-03-07 11:10:03.202,0.0
1032,2025-03-07 11:10:03.252,0.0
1033,2025-03-07 11:10:03.302,0.0
1034,2025-03-07 11:10:03.352,0.0
1035,2025-03-07 11:10:03.403,0.0
1036,2025-03-07 11:10:03.453,0.0
1037,2025-03-07 11:10:03.503,0.0
1038,2025-03-07 11:10:03.553,0.0
1039,2025-03-07 11:10:03.603,0.0
1040,2025-03-07 11:10:03.654,0.0
1041,2025-03-07 11:10:03.704,0.0
1042,2025-03-07 11:10:03.754,0.0
1043,2025-03-07 11:10:03.804,0.0
1044,2025-03-07 11:10:03.854,1.0
1045,2025-03-07 11:10:03.905,0.0
1046,2025-03-07 11:10:03.955,0.0
1047,2025-03-07 11:10:04.005,0.0
1048,2025-03-07 11:10:04.055,0.0
1049,2025-03-07 11:10:04.106,0.0
1050,2025-03-07 11:10:04.156,0.0
1051,2025-03-07 11:10:04.206,0.0
1052,2025-03-07 11:10:04.256,0.0
1053,2025-03-07 11:10:04.306,0.0
1054,2025-03-07 11:10:04.357,0.0
1055,2025-03-07 11:10:04.407,0.0
1056,2025-03-07 11:10:04.457,0.0
1057,2025-03-07 11:10:04.507,0.0
1058,2025-03-07 11:10:04.557,0.0
1059,2025-03-07 11:10:04.607,0.0
1060,2025-03-07 11:10:04.658,0.0
1061,2025-03-07 11:10:04.708,0.0
1062,2025-03-07 11:10:04.758,0.0
1063,2025-03-07 11:10:04.808,0.0
1064,2025-03-07 11:10:04.858,0.0
1065,2025-03-07 11:10:04.909,0.0
1066,2025-03-07 11:10:04.959,0.0
1067,2025-03-07 11:10:05.009,0.0
1068,2025-03-07 11:10:05.059,0.0
1069,2025-03-07 11:10:05.109,0.0
1070,2025-03-07 11:10:05.160,0.0
1071,2025-03-07 11:10:05.210,0.0
1072,2025-03-07 11:10:05.260,0.0
1073,2025-03-07 11:10:05.310,0.0
1074,2025-03-07 11:10:05.360,0.0
1075,2025-03-07 11:10:05.410,0.0
1076,2025-03-07 11:10:05.461,0.0
1077,2025-03-07 11:10:05.511,0.0
1078,2025-03-07 11:10:05.561,0.0
1079,2025-03-07 11:10:05.611,0.0
1080,2025-03-07 11:10:05.661,0.0
1081,2025-03-07 11:10:05.712,0.0
1082,2025-03-07 11:10:05.762,0.0
1083,2025-03-07 11:10:05.812,0.0
1084,2025-03-07 11:10:05.862,0.0
1085,2025-03-07 11:10:05.912,0.0
1086,2025-03-07 11:10:05.963,0.0
1087,2025-03-07 11:10:06.013,0.0
1088,2025-03-07 11:10:06.063,0.0
1089,2025-03-07 11:10:06.113,0.0
1090,2025-03-07 11:10:06.163,0.0
1091,2025-03-07 11:10:06.214,0.0
1092,2025-03-07 11:10:06.264,0.0
1093,2025-03-07 11:10:06.314,0.0
1094,2025-03-07 11:10:06.364,0.0
1095,2025-03-07 11:10:06.414,0.0
1096,2025-03-07 11:10:06.465,0.0
1097,2025-03-07 11:10:06.515,0.0
1098,2025-03-07 11:10:06.565,0.0
1099,2025-03-07 11:10:06.615,0.0
1100,2025-03-07 11:10:06.665,0.0
1101,2025-03-07 11:10:06.715,0.0
1102,2025-03-07 11:10:06.766,0.0
1103,2025-03-07 11:10:06.816,0.0
1104,2025-03-07 11:10:06.866,0.0
1105,2025-03-07 11:10:06.916,0.0
1106,2025-03-07 11:10:06.966,0.0
1107,2025-03-07 11:10:07.017,0.0
1108,2025-03-07 11:10:07.067,0.0
1109,2025-03-07 11:10:07.117,0.0
1110,2025-03-07 11:10:07.167,0.0
1111,2025-03-07 11:10:07.217,0.0
1112,2025-03-07 11:10:07.268,0.0
1113,2025-03-07 11:10:07.318,0.0
1114,2025-03-07 11:10:07.368,0.0
1115,2025-03-07 11:10:07.418,0.0
1116,2025-03-07 11:10:07.468,0.0
1117,2025-03-07 11:10:07.519,0.0
1118,2025-03-07 11:10:07.569,0.0
1119,2025-03-07 11:10:07.619,0.0
1120,2025-03-07 11:10:07.669,0.0
1121,2025-03-07 11:10:07.719,0.0
1122,2025-03-07 11:10:07.770,0.0
1123,2025-03-07 11:10:07.820,0.0
1124,2025-03-07 11:10:07.870,0.0
1125,2025-03-07 11:10:07.920,0.0
1126,2025-03-07 11:10:07.970,0.0
1127,2025-03-07 11:10:08.020,0.0
1128,2025-03-07 11:10:08.071,0.0
1129,2025-03-07 11:10:08.121,0.0
1130,2025-03-07 11:10:08.171,0.0
1131,2025-03-07 11:10:08.221,0.0
1132,2025-03-07 11:10:08.272,0.0
1133,2025-03-07 11:10:08.322,0.0
1134,2025-03-07 11:10:08.372,0.0
1135,2025-03-07 11:10:08.422,0.0
1136,2025-03-07 11:10:08.472,0.0
1137,2025-03-07 11:10:08.522,0.0
1138,2025-03-07 11:10:08.573,0.0
1139,2025-03-07 11:10:08.623,0.0
1140,2025-03-07 11:10:08.673,0.0
1141,2025-03-07 11:10:08.723,0.0
1142,2025-03-07 11:10:08.773,0.0
1143,2025-03-07 11:10:08.824,0.0
1144,2025-03-07 11:10:08.874,0.0
1145,2025-03-07 11:10:08.924,0.0
1146,2025-03-07 11:10:08.974,0.0
1147,2025-03-07 11:10:09.024,0.0
1148,2025-03-07 11:10:09.075,0.0
1149,2025-03-07 11:10:09.125,0.0
1150,2025-03-07 11:10:09.175,0.0
1151,2025-03-07 11:10:09.225,0.0
1152,2025-03-07 11:10:09.275,0.0
1153,2025-03-07 11:10:09.326,0.0
1154,2025-03-07 11:10:09.376,0.0
1155,2025-03-07 11:10:09.426,0.0
1156,2025-03-07 11:10:09.476,0.0
1157,2025-03-07 11:10:09.526,0.0
1158,2025-03-07 11:10:09.576,0.0
1159,2025-03-07 11:10:09.627,0.0
1160,2025-03-07 11:10:09.677,0.0
1161,2025-03-07 11:10:09.727,0.0
1162,2025-03-07 11:10:09.777,0.0
1163,2025-03-07 11:10:09.827,0.0
1164,2025-03-07 11:10:09.878,0.0
1165,2025-03-07 11:10:09.928,0.0
1166,2025-03-07 11:10:09.978,0.0
1167,2025-03-07 11:10:10.028,0.0
1168,2025-03-07 11:10:10.079,0.0
1169,2025-03-07 11:10:10.129,0.0
1170,2025-03-07 11:10:10.179,0.0
1171,2025-03-07 11:10:10.229,0.0
1172,2025-03-07 11:10:10.279,0.0
1173,2025-03-07 11:10:10.329,0.0
1174,2025-03-07 11:10:10.380,0.0
1175,2025-03-07 11:10:10.430,0.0
1176,2025-03-07 11:10:10.480,0.0
1177,2025-03-07 11:10:10.530,0.0
1178,2025-03-07 11:10:10.580,0.0
1179,2025-03-07 11:10:10.631,0.0
1180,2025-03-07 11:10:10.681,0.0
1181,2025-03-07 11:10:10.731,0.0
1182,2025-03-07 11:10:10.781,0.0
1183,2025-03-07 11:10:10.831,0.0
1184,2025-03-07 11:10:10.882,0.0
1185,2025-03-07 11:10:10.931,0.0
1186,2025-03-07 11:10:10.982,661.0
1187,2025-03-07 11:10:11.032,510.0
1188,2025-03-07 11:10:11.083,510.0
1189,2025-03-07 11:10:11.133,511.0
1190,2025-03-07 11:10:11.183,510.0
1191,2025-03-07 11:10:11.234,485.0
1192,2025-03-07 11:10:11.284,491.0
1193,2025-03-07 11:10:11.334,454.0
1194,2025-03-07 11:10:11.384,685.0
1195,2025-03-07 11:10:11.435,351.0
1196,2025-03-07 11:10:11.485,563.0
1197,2025-03-07 11:10:11.535,505.0
1198,2025-03-07 11:10:11.586,532.0
1199,2025-03-07 11:10:11.636,512.0
1200,2025-03-07 11:10:11.686,525.0
1201,2025-03-07 11:10:11.736,526.0
1202,2025-03-07 11:10:11.787,331.0
1203,2025-03-07 11:10:11.837,307.0
1204,2025-03-07 11:10:11.887,351.0
1205,2025-03-07 11:10:11.938,624.0
1206,2025-03-07 11:10:11.988,693.0
1207,2025-03-07 11:10:12.038,445.0
1208,2025-03-07 11:10:12.088,687.0
1209,2025-03-07 11:10:12.139,507.0
1210,2025-03-07 11:10:12.189,464.0
1211,2025-03-07 11:10:12.239,500.0
1212,2025-03-07 11:10:12.289,505.0
1213,2025-03-07 11:10:12.340,489.0
1214,2025-03-07 11:10:12.390,482.0
1215,2025-03-07 11:10:12.440,532.0
1216,2025-03-07 11:10:12.490,517.0
1217,2025-03-07 11:10:12.541,513.0
1218,2025-03-07 11:10:12.591,474.0
1219,2025-03-07 11:10:12.642,597.0
1220,2025-03-07 11:10:12.692,420.0
1221,2025-03-07 11:10:12.742,554.0
1222,2025-03-07 11:10:12.792,413.0
1223,2025-03-07 11:10:12.842,561.0
1224,2025-03-07 11:10:12.893,606.0
1225,2025-03-07 11:10:12.943,392.0
1226,2025-03-07 11:10:12.993,497.0
1227,2025-03-07 11:10:13.044,510.0
1228,2025-03-07 11:10:13.094,450.0
1229,2025-03-07 11:10:13.144,566.0
1230,2025-03-07 11:10:13.194,485.0
1231,2025-03-07 11:10:13.245,512.0
1232,2025-03-07 11:10:13.295,510.0
1233,2025-03-07 11:10:13.345,514.0
1234,2025-03-07 11:10:13.395,503.0
1235,2025-03-07 11:10:13.446,524.0
1236,2025-03-07 11:10:13.496,602.0
1237,2025-03-07 11:10:13.546,491.0
1238,2025-03-07 11:10:13.597,508.0
1239,2025-03-07 11:10:13.647,491.0
1240,2025-03-07 11:10:13.697,476.0
1241,2025-03-07 11:10:13.748,489.0
1242,2025-03-07 11:10:13.798,487.0
1243,2025-03-07 11:10:13.848,599.0
1244,2025-03-07 11:10:13.898,556.0
1245,2025-03-07 11:10:13.949,452.0
1246,2025-03-07 11:10:13.999,467.0
1247,2025-03-07 11:10:14.049,452.0
1248,2025-03-07 11:10:14.099,461.0
1249,2025-03-07 11:10:14.150,543.0
1250,2025-03-07 11:10:14.200,463.0
1251,2025-03-07 11:10:14.250,467.0
1252,2025-03-07 11:10:14.301,730.0
1253,2025-03-07 11:10:14.351,430.0
1254,2025-03-07 11:10:14.401,463.0
1255,2025-03-07 11:10:14.452,469.0
1256,2025-03-07 11:10:14.502,454.0
1257,2025-03-07 11:10:14.552,456.0
1258,2025-03-07 11:10:14.603,452.0
1259,2025-03-07 11:10:14.653,707.0
1260,2025-03-07 11:10:14.703,459.0
1261,2025-03-07 11:10:14.753,481.0
1262,2025-03-07 11:10:14.804,478.0
1263,2025-03-07 11:10:14.854,441.0
1264,2025-03-07 11:10:14.904,628.0
1265,2025-03-07 11:10:14.954,752.0
1266,2025-03-07 11:10:15.005,472.0
1267,2025-03-07 11:10:15.055,608.0
1268,2025-03-07 11:10:15.105,410.0
1269,2025-03-07 11:10:15.156,549.0
1270,2025-03-07 11:10:15.206,420.0
1271,2025-03-07 11:10:15.256,394.0
1272,2025-03-07 11:10:15.307,700.0
1273,2025-03-07 11:10:15.357,552.0
1274,2025-03-07 11:10:15.407,494.0
1275,2025-03-07 11:10:15.457,400.0
1276,2025-03-07 11:10:15.508,692.0
1277,2025-03-07 11:10:15.558,400.0
1278,2025-03-07 11:10:15.608,704.0
1279,2025-03-07 11:10:15.658,680.0
1280,2025-03-07 11:10:15.709,418.0
1281,2025-03-07 11:10:15.759,453.0
1282,2025-03-07 11:10:15.809,416.0
1283,2025-03-07 11:10:15.859,465.0
1284,2025-03-07 11:10:15.910,478.0
1285,2025-03-07 11:10:15.960,513.0
1286,2025-03-07 11:10:16.010,565.0
1287,2025-03-07 11:10:16.061,414.0
1288,2025-03-07 11:10:16.111,494.0
1289,2025-03-07 11:10:16.161,474.0
1290,2025-03-07 11:10:16.211,411.0
1291,2025-03-07 11:10:16.262,439.0
1292,2025-03-07 11:10:16.312,370.0
1293,2025-03-07 11:10:16.362,538.0
1294,2025-03-07 11:10:16.412,709.0
1295,2025-03-07 11:10:16.463,414.0
1296,2025-03-07 11:10:16.513,569.0
1297,2025-03-07 11:10:16.563,445.0
1298,2025-03-07 11:10:16.614,481.0
1299,2025-03-07 11:10:16.664,676.0
1300,2025-03-07 11:10:16.714,501.0
1301,2025-03-07 11:10:16.765,450.0
1302,2025-03-07 11:10:16.815,500.0
1303,2025-03-07 11:10:16.865,418.0
1304,2025-03-07 11:10:16.915,487.0
1305,2025-03-07 11:10:16.966,451.0
1306,2025-03-07 11:10:17.016,374.0
1307,2025-03-07 11:10:17.066,371.0
1308,2025-03-07 11:10:17.116,721.0
1309,2025-03-07 11:10:17.167,514.0
1310,2025-03-07 11:10:17.217,737.0
1311,2025-03-07 11:10:17.267,282.0
1312,2025-03-07 11:10:17.318,540.0
1313,2025-03-07 11:10:17.368,581.0
1314,2025-03-07 11:10:17.418,560.0
1315,2025-03-07 11:10:17.468,320.0
1316,2025-03-07 11:10:17.519,291.0
1317,2025-03-07 11:10:17.569,628.0
1318,2025-03-07 11:10:17.619,527.0
1319,2025-03-07 11:10:17.670,538.0
1320,2025-03-07 11:10:17.720,351.0
1321,2025-03-07 11:10:17.770,591.0
1322,2025-03-07 11:10:17.820,514.0
1323,2025-03-07 11:10:17.871,566.0
1324,2025-03-07 11:10:17.921,514.0
1325,2025-03-07 11:10:17.971,380.0
1326,2025-03-07 11:10:18.022,550.0
1327,2025-03-07 11:10:18.072,565.0
1328,2025-03-07 11:10:18.122,564.0
1329,2025-03-07 11:10:18.173,394.0
1330,2025-03-07 11:10:18.223,512.0
1331,2025-03-07 11:10:18.273,579.0
1332,2025-03-07 11:10:18.323,492.0
1333,2025-03-07 11:10:18.374,562.0
1334,2025-03-07 11:10:18.424,289.0
1335,2025-03-07 11:10:18.474,585.0
1336,2025-03-07 11:10:18.524,529.0
1337,2025-03-07 11:10:18.575,558.0
1338,2025-03-07 11:10:18.625,324.0
1339,2025-03-07 11:10:18.675,606.0
1340,2025-03-07 11:10:18.726,618.0
1341,2025-03-07 11:10:18.776,606.0
1342,2025-03-07 11:10:18.826,522.0
1343,2025-03-07 11:10:18.876,504.0
1344,2025-03-07 11:10:18.927,596.0
1345,2025-03-07 11:10:18.977,533.0
1346,2025-03-07 11:10:19.027,544.0
1347,2025-03-07 11:10:19.077,319.0
1348,2025-03-07 11:10:19.128,310.0
1349,2025-03-07 11:10:19.178,597.0
1350,2025-03-07 11:10:19.228,561.0
1351,2025-03-07 11:10:19.279,590.0
1352,2025-03-07 11:10:19.329,446.0
1353,2025-03-07 11:10:19.379,587.0
1354,2025-03-07 11:10:19.430,377.0
1355,2025-03-07 11:10:19.480,566.0
1356,2025-03-07 11:10:19.530,334.0
1357,2025-03-07 11:10:19.581,606.0
1358,2025-03-07 11:10:19.631,591.0
1359,2025-03-07 11:10:19.681,626.0
1360,2025-03-07 11:10:19.732,452.0
1361,2025-03-07 11:10:19.781,460.0
1362,2025-03-07 11:10:19.832,676.0
1363,2025-03-07 11:10:19.882,465.0
1364,2025-03-07 11:10:19.932,592.0
1365,2025-03-07 11:10:19.982,458.0
1366,2025-03-07 11:10:20.033,646.0
1367,2025-03-07 11:10:20.083,566.0
1368,2025-03-07 11:10:20.133,566.0
1369,2025-03-07 11:10:20.184,464.0
1370,2025-03-07 11:10:20.234,289.0
1371,2025-03-07 11:10:20.284,540.0
1372,2025-03-07 11:10:20.335,575.0
1373,2025-03-07 11:10:20.385,558.0
1374,2025-03-07 11:10:20.435,561.0
1375,2025-03-07 11:10:20.485,495.0
1376,2025-03-07 11:10:20.536,556.0
1377,2025-03-07 11:10:20.586,536.0
1378,2025-03-07 11:10:20.636,575.0
1379,2025-03-07 11:10:20.687,282.0
1380,2025-03-07 11:10:20.737,599.0
1381,2025-03-07 11:10:20.787,561.0
1382,2025-03-07 11:10:20.837,576.0
1383,2025-03-07 11:10:20.888,472.0
1384,2025-03-07 11:10:20.938,428.0
1385,2025-03-07 11:10:20.988,592.0
1386,2025-03-07 11:10:21.039,521.0
1387,2025-03-07 11:10:21.089,586.0
1388,2025-03-07 11:10:21.139,313.0
1389,2025-03-07 11:10:21.189,590.0
1390,2025-03-07 11:10:21.240,583.0
1391,2025-03-07 11:10:21.290,498.0
1392,2025-03-07 11:10:21.340,441.0
1393,2025-03-07 11:10:21.390,332.0
1394,2025-03-07 11:10:21.441,560.0
1395,2025-03-07 11:10:21.491,581.0
1396,2025-03-07 11:10:21.541,569.0
1397,2025-03-07 11:10:21.592,433.0
1398,2025-03-07 11:10:21.642,321.0
1399,2025-03-07 11:10:21.692,594.0
1400,2025-03-07 11:10:21.742,454.0
1401,2025-03-07 11:10:21.793,441.0
1402,2025-03-07 11:10:21.843,555.0
1403,2025-03-07 11:10:21.893,583.0
1404,2025-03-07 11:10:21.943,504.0
1405,2025-03-07 11:10:21.994,572.0
1406,2025-03-07 11:10:22.044,538.0
1407,2025-03-07 11:10:22.094,308.0
1408,2025-03-07 11:10:22.145,551.0
1409,2025-03-07 11:10:22.195,531.0
1410,2025-03-07 11:10:22.245,443.0
1411,2025-03-07 11:10:22.296,300.0
1412,2025-03-07 11:10:22.346,568.0
1413,2025-03-07 11:10:22.396,584.0
1414,2025-03-07 11:10:22.446,573.0
1415,2025-03-07 11:10:22.497,514.0
1416,2025-03-07 11:10:22.547,422.0
1417,2025-03-07 11:10:22.597,583.0
1418,2025-03-07 11:10:22.647,587.0
1419,2025-03-07 11:10:22.698,522.0
1420,2025-03-07 11:10:22.748,278.0
1421,2025-03-07 11:10:22.798,603.0
1422,2025-03-07 11:10:22.849,585.0
1423,2025-03-07 11:10:22.899,580.0
1424,2025-03-07 11:10:22.949,433.0
1425,2025-03-07 11:10:22.999,499.0
1426,2025-03-07 11:10:23.049,578.0
1427,2025-03-07 11:10:23.100,344.0
1428,2025-03-07 11:10:23.150,569.0
1429,2025-03-07 11:10:23.200,299.0
1430,2025-03-07 11:10:23.251,603.0
1431,2025-03-07 11:10:23.301,488.0
1432,2025-03-07 11:10:23.351,563.0
1433,2025-03-07 11:10:23.401,529.0
1434,2025-03-07 11:10:23.452,278.0
1435,2025-03-07 11:10:23.502,591.0
1436,2025-03-07 11:10:23.553,405.0
1437,2025-03-07 11:10:23.603,563.0
1438,2025-03-07 11:10:23.653,353.0
1439,2025-03-07 11:10:23.704,609.0
1440,2025-03-07 11:10:23.754,607.0
1441,2025-03-07 11:10:23.804,579.0
1442,2025-03-07 11:10:23.854,544.0
1443,2025-03-07 11:10:23.905,335.0
1444,2025-03-07 11:10:23.955,508.0
1445,2025-03-07 11:10:24.005,592.0
1446,2025-03-07 11:10:24.056,558.0
1447,2025-03-07 11:10:24.106,421.0
1448,2025-03-07 11:10:24.156,346.0
1449,2025-03-07 11:10:24.206,562.0
1450,2025-03-07 11:10:24.257,597.0
1451,2025-03-07 11:10:24.307,485.0
1452,2025-03-07 11:10:24.357,416.0
1453,2025-03-07 11:10:24.407,455.0
1454,2025-03-07 11:10:24.458,569.0
1455,2025-03-07 11:10:24.508,509.0
1456,2025-03-07 11:10:24.558,325.0
1457,2025-03-07 11:10:24.609,555.0
1458,2025-03-07 11:10:24.659,596.0
1459,2025-03-07 11:10:24.709,579.0
1460,2025-03-07 11:10:24.760,552.0
1461,2025-03-07 11:10:24.809,357.0
1462,2025-03-07 11:10:24.860,567.0
1463,2025-03-07 11:10:24.910,546.0
1464,2025-03-07 11:10:24.961,516.0
1465,2025-03-07 11:10:25.011,431.0
1466,2025-03-07 11:10:25.061,530.0
1467,2025-03-07 11:10:25.111,591.0
1468,2025-03-07 11:10:25.162,576.0
1469,2025-03-07 11:10:25.212,569.0
1470,2025-03-07 11:10:25.262,330.0
1471,2025-03-07 11:10:25.313,672.0
1472,2025-03-07 11:10:25.363,617.0
1473,2025-03-07 11:10:25.413,565.0
1474,2025-03-07 11:10:25.463,511.0
1475,2025-03-07 11:10:25.514,289.0
1476,2025-03-07 11:10:25.564,478.0
1477,2025-03-07 11:10:25.614,383.0
1478,2025-03-07 11:10:25.664,568.0
1479,2025-03-07 11:10:25.714,397.0
1480,2025-03-07 11:10:25.765,567.0
1481,2025-03-07 11:10:25.815,561.0
1482,2025-03-07 11:10:25.866,571.0
1483,2025-03-07 11:10:25.916,556.0
1484,2025-03-07 11:10:25.966,291.0
1485,2025-03-07 11:10:26.016,595.0
1486,2025-03-07 11:10:26.067,512.0
1487,2025-03-07 11:10:26.117,490.0
1488,2025-03-07 11:10:26.167,335.0
1489,2025-03-07 11:10:26.217,652.0
1490,2025-03-07 11:10:26.268,459.0
1491,2025-03-07 11:10:26.318,572.0
1492,2025-03-07 11:10:26.368,575.0
1493,2025-03-07 11:10:26.419,350.0
1494,2025-03-07 11:10:26.469,501.0
1495,2025-03-07 11:10:26.519,542.0
1496,2025-03-07 11:10:26.570,452.0
1497,2025-03-07 11:10:26.620,336.0
1498,2025-03-07 11:10:26.670,418.0
1499,2025-03-07 11:10:26.721,528.0
1500,2025-03-07 11:10:26.771,634.0
1501,2025-03-07 11:10:26.821,381.0
1502,2025-03-07 11:10:26.871,464.0
1503,2025-03-07 11:10:26.921,471.0
1504,2025-03-07 11:10:26.972,464.0
1505,2025-03-07 11:10:27.022,452.0
1506,2025-03-07 11:10:27.072,510.0
1507,2025-03-07 11:10:27.123,720.0
1508,2025-03-07 11:10:27.173,428.0
1509,2025-03-07 11:10:27.223,616.0
1510,2025-03-07 11:10:27.274,398.0
1511,2025-03-07 11:10:27.324,549.0
1512,2025-03-07 11:10:27.374,428.0
1513,2025-03-07 11:10:27.424,460.0
1514,2025-03-07 11:10:27.474,477.0
1515,2025-03-07 11:10:27.525,514.0
1516,2025-03-07 11:10:27.575,447.0
1517,2025-03-07 11:10:27.626,630.0
1518,2025-03-07 11:10:27.676,431.0
1519,2025-03-07 11:10:27.726,420.0
1520,2025-03-07 11:10:27.776,546.0
1521,2025-03-07 11:10:27.827,453.0
1522,2025-03-07 11:10:27.877,404.0
1523,2025-03-07 11:10:27.927,455.0
1524,2025-03-07 11:10:27.978,496.0
1525,2025-03-07 11:10:28.028,482.0
1526,2025-03-07 11:10:28.078,782.0
1527,2025-03-07 11:10:28.128,387.0
1528,2025-03-07 11:10:28.179,680.0
1529,2025-03-07 11:10:28.229,644.0
1530,2025-03-07 11:10:28.279,481.0
1531,2025-03-07 11:10:28.329,464.0
1532,2025-03-07 11:10:28.380,381.0
1533,2025-03-07 11:10:28.430,431.0
1534,2025-03-07 11:10:28.480,404.0
1535,2025-03-07 11:10:28.531,742.0
1536,2025-03-07 11:10:28.581,396.0
1537,2025-03-07 11:10:28.631,477.0
1538,2025-03-07 11:10:28.682,408.0
1539,2025-03-07 11:10:28.732,401.0
1540,2025-03-07 11:10:28.782,373.0
1541,2025-03-07 11:10:28.832,728.0
1542,2025-03-07 11:10:28.882,478.0
1543,2025-03-07 11:10:28.933,381.0
1544,2025-03-07 11:10:28.983,444.0
1545,2025-03-07 11:10:29.033,724.0
1546,2025-03-07 11:10:29.084,492.0
1547,2025-03-07 11:10:29.134,590.0
1548,2025-03-07 11:10:29.184,447.0
1549,2025-03-07 11:10:29.234,690.0
1550,2025-03-07 11:10:29.285,635.0
1551,2025-03-07 11:10:29.335,429.0
1552,2025-03-07 11:10:29.385,517.0
1553,2025-03-07 11:10:29.436,528.0
1554,2025-03-07 11:10:29.486,749.0
1555,2025-03-07 11:10:29.536,377.0
1556,2025-03-07 11:10:29.586,435.0
1557,2025-03-07 11:10:29.637,436.0
1558,2025-03-07 11:10:29.687,445.0
1559,2025-03-07 11:10:29.737,377.0
1560,2025-03-07 11:10:29.788,423.0
1561,2025-03-07 11:10:29.838,731.0
1562,2025-03-07 11:10:29.888,518.0
1563,2025-03-07 11:10:29.939,430.0
1564,2025-03-07 11:10:29.989,570.0
1565,2025-03-07 11:10:30.039,384.0
1566,2025-03-07 11:10:30.089,394.0
1567,2025-03-07 11:10:30.140,392.0
1568,2025-03-07 11:10:30.190,450.0
1569,2025-03-07 11:10:30.240,521.0
1570,2025-03-07 11:10:30.291,450.0
1571,2025-03-07 11:10:30.341,568.0
1572,2025-03-07 11:10:30.391,408.0
1573,2025-03-07 11:10:30.441,712.0
1574,2025-03-07 11:10:30.492,444.0
1575,2025-03-07 11:10:30.542,547.0
1576,2025-03-07 11:10:30.592,393.0
1577,2025-03-07 11:10:30.642,422.0
1578,2025-03-07 11:10:30.693,500.0
1579,2025-03-07 11:10:30.743,534.0
1580,2025-03-07 11:10:30.793,510.0
1581,2025-03-07 11:10:30.843,534.0
1582,2025-03-07 11:10:30.894,511.0
1583,2025-03-07 11:10:30.944,512.0
1584,2025-03-07 11:10:30.994,511.0
1585,2025-03-07 11:10:31.045,519.0
1586,2025-03-07 11:10:31.095,511.0
1587,2025-03-07 11:10:31.145,510.0
1588,2025-03-07 11:10:31.195,468.0
1589,2025-03-07 11:10:31.246,511.0
1590,2025-03-07 11:10:31.296,511.0
1591,2025-03-07 11:10:31.346,510.0
1592,2025-03-07 11:10:31.397,515.0
1593,2025-03-07 11:10:31.447,503.0
1594,2025-03-07 11:10:31.497,539.0
1595,2025-03-07 11:10:31.547,501.0
1596,2025-03-07 11:10:31.598,485.0
1597,2025-03-07 11:10:31.648,620.0
1598,2025-03-07 11:10:31.698,498.0
1599,2025-03-07 11:10:31.748,487.0
1600,2025-03-07 11:10:31.799,483.0
1601,2025-03-07 11:10:31.849,503.0
1602,2025-03-07 11:10:31.899,474.0
1603,2025-03-07 11:10:31.950,509.0
1604,2025-03-07 11:10:32.000,440.0
1605,2025-03-07 11:10:32.050,463.0
1606,2025-03-07 11:10:32.101,485.0
1607,2025-03-07 11:10:32.151,695.0
1608,2025-03-07 11:10:32.201,445.0
1609,2025-03-07 11:10:32.251,480.0
1610,2025-03-07 11:10:32.302,659.0
1611,2025-03-07 11:10:32.352,430.0
1612,2025-03-07 11:10:32.402,523.0
1613,2025-03-07 11:10:32.453,408.0
1614,2025-03-07 11:10:32.503,541.0
1615,2025-03-07 11:10:32.553,535.0
1616,2025-03-07 11:10:32.603,460.0
1617,2025-03-07 11:10:32.654,733.0
1618,2025-03-07 11:10:32.704,514.0
1619,2025-03-07 11:10:32.754,428.0
1620,2025-03-07 11:10:32.805,690.0
1621,2025-03-07 11:10:32.855,755.0
1622,2025-03-07 11:10:32.905,428.0
1623,2025-03-07 11:10:32.956,566.0
1624,2025-03-07 11:10:33.006,491.0
1625,2025-03-07 11:10:33.056,389.0
1626,2025-03-07 11:10:33.106,482.0
1627,2025-03-07 11:10:33.156,464.0
1628,2025-03-07 11:10:33.207,419.0
1629,2025-03-07 11:10:33.257,602.0
1630,2025-03-07 11:10:33.307,555.0
1631,2025-03-07 11:10:33.358,606.0
1632,2025-03-07 11:10:33.408,554.0
1633,2025-03-07 11:10:33.458,541.0
1634,2025-03-07 11:10:33.509,634.0
1635,2025-03-07 11:10:33.559,411.0
1636,2025-03-07 11:10:33.609,328.0
1637,2025-03-07 11:10:33.659,392.0
1638,2025-03-07 11:10:33.710,458.0
1639,2025-03-07 11:10:33.760,520.0
1640,2025-03-07 11:10:33.810,623.0
1641,2025-03-07 11:10:33.860,601.0
1642,2025-03-07 11:10:33.911,447.0
1643,2025-03-07 11:10:33.961,511.0
1644,2025-03-07 11:10:34.011,686.0
1645,2025-03-07 11:10:34.062,390.0
1646,2025-03-07 11:10:34.112,735.0
1647,2025-03-07 11:10:34.162,398.0
1648,2025-03-07 11:10:34.213,465.0
1649,2025-03-07 11:10:34.263,477.0
1650,2025-03-07 11:10:34.313,492.0
1651,2025-03-07 11:10:34.363,433.0
1652,2025-03-07 11:10:34.414,430.0
1653,2025-03-07 11:10:34.464,460.0
1654,2025-03-07 11:10:34.514,488.0
1655,2025-03-07 11:10:34.564,427.0
1656,2025-03-07 11:10:34.615,475.0
1657,2025-03-07 11:10:34.665,676.0
1658,2025-03-07 11:10:34.715,455.0
1659,2025-03-07 11:10:34.766,473.0
1660,2025-03-07 11:10:34.816,517.0
1661,2025-03-07 11:10:34.866,510.0
1662,2025-03-07 11:10:34.917,511.0
1663,2025-03-07 11:10:34.967,511.0
1664,2025-03-07 11:10:35.017,508.0
1665,2025-03-07 11:10:35.067,506.0
1666,2025-03-07 11:10:35.117,504.0
1667,2025-03-07 11:10:35.168,531.0
1668,2025-03-07 11:10:35.218,473.0
1669,2025-03-07 11:10:35.268,584.0
1670,2025-03-07 11:10:35.319,460.0
1671,2025-03-07 11:10:35.369,505.0
1672,2025-03-07 11:10:35.419,400.0
1673,2025-03-07 11:10:35.470,482.0
1674,2025-03-07 11:10:35.520,618.0
1675,2025-03-07 11:10:35.570,513.0
1676,2025-03-07 11:10:35.621,411.0
1677,2025-03-07 11:10:35.671,731.0
1678,2025-03-07 11:10:35.721,389.0
1679,2025-03-07 11:10:35.771,414.0
1680,2025-03-07 11:10:35.822,414.0
1681,2025-03-07 11:10:35.872,846.0
1682,2025-03-07 11:10:35.922,513.0
1683,2025-03-07 11:10:35.972,497.0
1684,2025-03-07 11:10:36.023,490.0
1685,2025-03-07 11:10:36.073,497.0
1686,2025-03-07 11:10:36.123,439.0
1687,2025-03-07 11:10:36.174,469.0
1688,2025-03-07 11:10:36.224,585.0
1689,2025-03-07 11:10:36.274,451.0
1690,2025-03-07 11:10:36.324,392.0
1691,2025-03-07 11:10:36.375,637.0
1692,2025-03-07 11:10:36.425,572.0
1693,2025-03-07 11:10:36.475,512.0
1694,2025-03-07 11:10:36.526,510.0
1695,2025-03-07 11:10:36.576,511.0
1696,2025-03-07 11:10:36.626,510.0
1697,2025-03-07 11:10:36.676,511.0
1698,2025-03-07 11:10:36.727,511.0
1699,2025-03-07 11:10:36.777,511.0
1700,2025-03-07 11:10:36.827,510.0
1701,2025-03-07 11:10:36.877,510.0
1702,2025-03-07 11:10:36.928,511.0
1703,2025-03-07 11:10:36.978,511.0
1704,2025-03-07 11:10:37.028,511.0
1705,2025-03-07 11:10:37.078,511.0
1706,2025-03-07 11:10:37.129,511.0
1707,2025-03-07 11:10:37.179,511.0
1708,2025-03-07 11:10:37.229,511.0
1709,2025-03-07 11:10:37.280,510.0
1710,2025-03-07 11:10:37.330,511.0
1711,2025-03-07 11:10:37.380,511.0
1712,2025-03-07 11:10:37.430,510.0
1713,2025-03-07 11:10:37.481,510.0
1714,2025-03-07 11:10:37.531,503.0
1715,2025-03-07 11:10:37.581,519.0
1716,2025-03-07 11:10:37.632,511.0
1717,2025-03-07 11:10:37.682,511.0
1718,2025-03-07 11:10:37.732,531.0
1719,2025-03-07 11:10:37.782,548.0
1720,2025-03-07 11:10:37.833,496.0
1721,2025-03-07 11:10:37.883,492.0
1722,2025-03-07 11:10:37.933,497.0
1723,2025-03-07 11:10:37.984,478.0
1724,2025-03-07 11:10:38.034,561.0
1725,2025-03-07 11:10:38.084,498.0
1726,2025-03-07 11:10:38.134,502.0
1727,2025-03-07 11:10:38.185,479.0
1728,2025-03-07 11:10:38.235,607.0
1729,2025-03-07 11:10:38.285,475.0
1730,2025-03-07 11:10:38.336,463.0
1731,2025-03-07 11:10:38.386,491.0
1732,2025-03-07 11:10:38.436,495.0
1733,2025-03-07 11:10:38.487,506.0
1734,2025-03-07 11:10:38.537,479.0
1735,2025-03-07 11:10:38.587,482.0
1736,2025-03-07 11:10:38.637,489.0
1737,2025-03-07 11:10:38.688,511.0
1738,2025-03-07 11:10:38.738,590.0
1739,2025-03-07 11:10:38.788,647.0
1740,2025-03-07 11:10:38.838,483.0
1741,2025-03-07 11:10:38.889,538.0
1742,2025-03-07 11:10:38.939,514.0
1743,2025-03-07 11:10:38.989,506.0
1744,2025-03-07 11:10:39.040,538.0
1745,2025-03-07 11:10:39.090,489.0
1746,2025-03-07 11:10:39.140,492.0
1747,2025-03-07 11:10:39.191,476.0
1748,2025-03-07 11:10:39.241,532.0
1749,2025-03-07 11:10:39.291,475.0
1750,2025-03-07 11:10:39.341,499.0
1751,2025-03-07 11:10:39.392,492.0
1752,2025-03-07 11:10:39.442,508.0
1753,2025-03-07 11:10:39.492,474.0
1754,2025-03-07 11:10:39.542,473.0
1755,2025-03-07 11:10:39.593,480.0
1756,2025-03-07 11:10:39.643,505.0
1757,2025-03-07 11:10:39.693,499.0
1758,2025-03-07 11:10:39.743,420.0
1759,2025-03-07 11:10:39.794,415.0
1760,2025-03-07 11:10:39.844,668.0
1761,2025-03-07 11:10:39.894,415.0
1762,2025-03-07 11:10:39.944,653.0
1763,2025-03-07 11:10:39.995,494.0
1764,2025-03-07 11:10:40.045,431.0
1765,2025-03-07 11:10:40.095,441.0
1766,2025-03-07 11:10:40.146,426.0
1767,2025-03-07 11:10:40.196,657.0
1768,2025-03-07 11:10:40.246,653.0
1769,2025-03-07 11:10:40.297,439.0
1770,2025-03-07 11:10:40.347,620.0
1771,2025-03-07 11:10:40.397,439.0
1772,2025-03-07 11:10:40.447,617.0
1773,2025-03-07 11:10:40.497,420.0
1774,2025-03-07 11:10:40.548,649.0
1775,2025-03-07 11:10:40.598,439.0
1776,2025-03-07 11:10:40.648,553.0
1777,2025-03-07 11:10:40.699,665.0
1778,2025-03-07 11:10:40.749,442.0
1779,2025-03-07 11:10:40.799,426.0
1780,2025-03-07 11:10:40.850,646.0
1781,2025-03-07 11:10:40.900,464.0
1782,2025-03-07 11:10:40.950,786.0
1783,2025-03-07 11:10:41.001,715.0
1784,2025-03-07 11:10:41.051,453.0
1785,2025-03-07 11:10:41.101,385.0
1786,2025-03-07 11:10:41.151,454.0
1787,2025-03-07 11:10:41.202,439.0
1788,2025-03-07 11:10:41.252,437.0
1789,2025-03-07 11:10:41.302,434.0
1790,2025-03-07 11:10:41.353,640.0
1791,2025-03-07 11:10:41.403,745.0
1792,2025-03-07 11:10:41.453,498.0
1793,2025-03-07 11:10:41.503,693.0
1794,2025-03-07 11:10:41.554,591.0
1795,2025-03-07 11:10:41.604,406.0
1796,2025-03-07 11:10:41.654,643.0
1797,2025-03-07 11:10:41.704,445.0
1798,2025-03-07 11:10:41.755,471.0
1799,2025-03-07 11:10:41.805,333.0
1800,2025-03-07 11:10:41.856,420.0
1801,2025-03-07 11:10:41.906,357.0
1802,2025-03-07 11:10:41.956,642.0
1803,2025-03-07 11:10:42.006,702.0
1804,2025-03-07 11:10:42.056,427.0
1805,2025-03-07 11:10:42.107,539.0
1806,2025-03-07 11:10:42.157,406.0
1807,2025-03-07 11:10:42.207,521.0
1808,2025-03-07 11:10:42.258,555.0
1809,2025-03-07 11:10:42.308,578.0
1810,2025-03-07 11:10:42.358,665.0
1811,2025-03-07 11:10:42.409,464.0
1812,2025-03-07 11:10:42.459,298.0
1813,2025-03-07 11:10:42.509,683.0
1814,2025-03-07 11:10:42.559,578.0
1815,2025-03-07 11:10:42.610,311.0
1816,2025-03-07 11:10:42.660,540.0
1817,2025-03-07 11:10:42.710,704.0
1818,2025-03-07 11:10:42.760,376.0
1819,2025-03-07 11:10:42.811,389.0
1820,2025-03-07 11:10:42.861,706.0
1821,2025-03-07 11:10:42.911,499.0
1822,2025-03-07 11:10:42.962,565.0
1823,2025-03-07 11:10:43.012,525.0
1824,2025-03-07 11:10:43.062,341.0
1825,2025-03-07 11:10:43.112,726.0
1826,2025-03-07 11:10:43.163,689.0
1827,2025-03-07 11:10:43.213,365.0
1828,2025-03-07 11:10:43.263,343.0
1829,2025-03-07 11:10:43.314,463.0
1830,2025-03-07 11:10:43.364,694.0
1831,2025-03-07 11:10:43.414,386.0
1832,2025-03-07 11:10:43.464,581.0
1833,2025-03-07 11:10:43.515,360.0
1834,2025-03-07 11:10:43.565,453.0
1835,2025-03-07 11:10:43.615,586.0
1836,2025-03-07 11:10:43.666,499.0
1837,2025-03-07 11:10:43.716,679.0
1838,2025-03-07 11:10:43.766,638.0
1839,2025-03-07 11:10:43.816,680.0
1840,2025-03-07 11:10:43.867,693.0
1841,2025-03-07 11:10:43.917,443.0
1842,2025-03-07 11:10:43.967,412.0
1843,2025-03-07 11:10:44.017,436.0
1844,2025-03-07 11:10:44.068,676.0
1845,2025-03-07 11:10:44.118,341.0
1846,2025-03-07 11:10:44.168,334.0
1847,2025-03-07 11:10:44.218,377.0
1848,2025-03-07 11:10:44.269,399.0
1849,2025-03-07 11:10:44.319,422.0
1850,2025-03-07 11:10:44.370,496.0
1851,2025-03-07 11:10:44.420,357.0
1852,2025-03-07 11:10:44.470,504.0
1853,2025-03-07 11:10:44.520,545.0
1854,2025-03-07 11:10:44.571,316.0
1855,2025-03-07 11:10:44.621,385.0
1856,2025-03-07 11:10:44.671,350.0
1857,2025-03-07 11:10:44.722,552.0
1858,2025-03-07 11:10:44.772,723.0
1859,2025-03-07 11:10:44.822,495.0
1860,2025-03-07 11:10:44.872,715.0
1861,2025-03-07 11:10:44.922,380.0
1862,2025-03-07 11:10:44.973,333.0
1863,2025-03-07 11:10:45.023,515.0
1864,2025-03-07 11:10:45.073,668.0
1865,2025-03-07 11:10:45.124,349.0
1866,2025-03-07 11:10:45.174,299.0
1867,2025-03-07 11:10:45.224,367.0
1868,2025-03-07 11:10:45.275,564.0
1869,2025-03-07 11:10:45.325,723.0
1870,2025-03-07 11:10:45.375,460.0
1871,2025-03-07 11:10:45.426,428.0
1872,2025-03-07 11:10:45.476,363.0
1873,2025-03-07 11:10:45.526,349.0
1874,2025-03-07 11:10:45.576,679.0
1875,2025-03-07 11:10:45.626,736.0
1876,2025-03-07 11:10:45.677,431.0
1877,2025-03-07 11:10:45.727,634.0
1878,2025-03-07 11:10:45.777,603.0
1879,2025-03-07 11:10:45.828,476.0
1880,2025-03-07 11:10:45.878,360.0
1881,2025-03-07 11:10:45.928,429.0
1882,2025-03-07 11:10:45.979,468.0
1883,2025-03-07 11:10:46.029,483.0
1884,2025-03-07 11:10:46.079,711.0
1885,2025-03-07 11:10:46.129,513.0
1886,2025-03-07 11:10:46.180,633.0
1887,2025-03-07 11:10:46.230,450.0
1888,2025-03-07 11:10:46.280,436.0
1889,2025-03-07 11:10:46.331,391.0
1890,2025-03-07 11:10:46.381,722.0
1891,2025-03-07 11:10:46.431,766.0
1892,2025-03-07 11:10:46.481,703.0
1893,2025-03-07 11:10:46.532,650.0
1894,2025-03-07 11:10:46.582,465.0
1895,2025-03-07 11:10:46.632,485.0
1896,2025-03-07 11:10:46.682,498.0
1897,2025-03-07 11:10:46.733,500.0
1898,2025-03-07 11:10:46.783,793.0
1899,2025-03-07 11:10:46.833,544.0
1900,2025-03-07 11:10:46.883,486.0
1901,2025-03-07 11:10:46.934,389.0
1902,2025-03-07 11:10:46.984,410.0
1903,2025-03-07 11:10:47.034,520.0
1904,2025-03-07 11:10:47.085,439.0
1905,2025-03-07 11:10:47.135,486.0
1906,2025-03-07 11:10:47.185,432.0
1907,2025-03-07 11:10:47.236,649.0
1908,2025-03-07 11:10:47.286,778.0
1909,2025-03-07 11:10:47.336,740.0
1910,2025-03-07 11:10:47.386,434.0
1911,2025-03-07 11:10:47.437,482.0
1912,2025-03-07 11:10:47.487,482.0
1913,2025-03-07 11:10:47.537,462.0
1914,2025-03-07 11:10:47.588,404.0
1915,2025-03-07 11:10:47.638,469.0
1916,2025-03-07 11:10:47.688,716.0
1917,2025-03-07 11:10:47.739,745.0
1918,2025-03-07 11:10:47.789,406.0
1919,2025-03-07 11:10:47.839,546.0
1920,2025-03-07 11:10:47.889,449.0
1921,2025-03-07 11:10:47.939,793.0
1922,2025-03-07 11:10:47.990,378.0
1923,2025-03-07 11:10:48.040,742.0
1924,2025-03-07 11:10:48.090,616.0
1925,2025-03-07 11:10:48.141,364.0
1926,2025-03-07 11:10:48.191,538.0
1927,2025-03-07 11:10:48.241,442.0
1928,2025-03-07 11:10:48.292,363.0
1929,2025-03-07 11:10:48.342,718.0
1930,2025-03-07 11:10:48.392,706.0
1931,2025-03-07 11:10:48.442,363.0
1932,2025-03-07 11:10:48.492,469.0
1933,2025-03-07 11:10:48.543,387.0
1934,2025-03-07 11:10:48.593,621.0
1935,2025-03-07 11:10:48.643,428.0
1936,2025-03-07 11:10:48.694,384.0
1937,2025-03-07 11:10:48.744,486.0
1938,2025-03-07 11:10:48.794,433.0
1939,2025-03-07 11:10:48.844,443.0
1940,2025-03-07 11:10:48.895,555.0
1941,2025-03-07 11:10:48.945,417.0
1942,2025-03-07 11:10:48.995,393.0
1943,2025-03-07 11:10:49.045,682.0
1944,2025-03-07 11:10:49.096,468.0
1945,2025-03-07 11:10:49.146,421.0
1946,2025-03-07 11:10:49.196,394.0
1947,2025-03-07 11:10:49.247,632.0
1948,2025-03-07 11:10:49.297,671.0
1949,2025-03-07 11:10:49.347,432.0
1950,2025-03-07 11:10:49.398,776.0
1951,2025-03-07 11:10:49.448,313.0
1952,2025-03-07 11:10:49.498,720.0
1953,2025-03-07 11:10:49.548,352.0
1954,2025-03-07 11:10:49.598,393.0
1955,2025-03-07 11:10:49.649,593.0
1956,2025-03-07 11:10:49.699,425.0
1957,2025-03-07 11:10:49.750,484.0
1958,2025-03-07 11:10:49.800,510.0
1959,2025-03-07 11:10:49.850,718.0
1960,2025-03-07 11:10:49.900,383.0
1961,2025-03-07 11:10:49.951,360.0
1962,2025-03-07 11:10:50.001,381.0
1963,2025-03-07 11:10:50.051,390.0
1964,2025-03-07 11:10:50.102,406.0
1965,2025-03-07 11:10:50.152,448.0
1966,2025-03-07 11:10:50.202,492.0
1967,2025-03-07 11:10:50.252,408.0
1968,2025-03-07 11:10:50.303,408.0
1969,2025-03-07 11:10:50.353,664.0
1970,2025-03-07 11:10:50.403,751.0
1971,2025-03-07 11:10:50.454,390.0
1972,2025-03-07 11:10:50.504,498.0
1973,2025-03-07 11:10:50.554,470.0
1974,2025-03-07 11:10:50.604,499.0
1975,2025-03-07 11:10:50.655,464.0
1976,2025-03-07 11:10:50.705,497.0
1977,2025-03-07 11:10:50.755,823.0
1978,2025-03-07 11:10:50.806,400.0
1979,2025-03-07 11:10:50.856,785.0
1980,2025-03-07 11:10:50.906,465.0
1981,2025-03-07 11:10:50.956,504.0
1982,2025-03-07 11:10:51.007,885.0
1983,2025-03-07 11:10:51.057,448.0
1984,2025-03-07 11:10:51.107,489.0
1985,2025-03-07 11:10:51.157,508.0
1986,2025-03-07 11:10:51.208,468.0
1987,2025-03-07 11:10:51.258,491.0
1988,2025-03-07 11:10:51.308,786.0
1989,2025-03-07 11:10:51.358,375.0
1990,2025-03-07 11:10:51.409,440.0
1991,2025-03-07 11:10:51.459,700.0
1992,2025-03-07 11:10:51.509,485.0
1993,2025-03-07 11:10:51.560,495.0
1994,2025-03-07 11:10:51.610,590.0
1995,2025-03-07 11:10:51.660,689.0
1996,2025-03-07 11:10:51.711,470.0
1997,2025-03-07 11:10:51.761,430.0
1998,2025-03-07 11:10:51.811,667.0
1999,2025-03-07 11:10:51.862,414.0
2000,2025-03-07 11:10:51.912,439.0
2001,2025-03-07 11:10:51.962,518.0
2002,2025-03-07 11:10:52.012,375.0
2003,2025-03-07 11:10:52.062,557.0
2004,2025-03-07 11:10:52.113,573.0
2005,2025-03-07 11:10:52.163,473.0
2006,2025-03-07 11:10:52.213,486.0
2007,2025-03-07 11:10:52.264,479.0
2008,2025-03-07 11:10:52.314,692.0
2009,2025-03-07 11:10:52.364,704.0
2010,2025-03-07 11:10:52.415,320.0
2011,2025-03-07 11:10:52.465,661.0
2012,2025-03-07 11:10:52.515,622.0
2013,2025-03-07 11:10:52.565,295.0
2014,2025-03-07 11:10:52.616,621.0
2015,2025-03-07 11:10:52.666,361.0
2016,2025-03-07 11:10:52.716,510.0
2017,2025-03-07 11:10:52.767,454.0
2018,2025-03-07 11:10:52.817,586.0
2019,2025-03-07 11:10:52.867,660.0
2020,2025-03-07 11:10:52.917,463.0
2021,2025-03-07 11:10:52.968,508.0
2022,2025-03-07 11:10:53.018,587.0
2023,2025-03-07 11:10:53.068,525.0
2024,2025-03-07 11:10:53.119,436.0
2025,2025-03-07 11:10:53.169,693.0
2026,2025-03-07 11:10:53.219,435.0
2027,2025-03-07 11:10:53.269,471.0
2028,2025-03-07 11:10:53.320,484.0
2029,2025-03-07 11:10:53.370,500.0
2030,2025-03-07 11:10:53.420,496.0
2031,2025-03-07 11:10:53.471,507.0
2032,2025-03-07 11:10:53.521,456.0
2033,2025-03-07 11:10:53.571,486.0
2034,2025-03-07 11:10:53.621,461.0
2035,2025-03-07 11:10:53.672,465.0
2036,2025-03-07 11:10:53.722,506.0
2037,2025-03-07 11:10:53.772,469.0
2038,2025-03-07 11:10:53.823,517.0
2039,2025-03-07 11:10:53.873,437.0
2040,2025-03-07 11:10:53.923,753.0
2041,2025-03-07 11:10:53.974,628.0
2042,2025-03-07 11:10:54.024,383.0
2043,2025-03-07 11:10:54.074,667.0
2044,2025-03-07 11:10:54.124,651.0
2045,2025-03-07 11:10:54.174,518.0
2046,2025-03-07 11:10:54.225,433.0
2047,2025-03-07 11:10:54.275,471.0
2048,2025-03-07 11:10:54.325,404.0
2049,2025-03-07 11:10:54.376,434.0
2050,2025-03-07 11:10:54.426,381.0
2051,2025-03-07 11:10:54.476,410.0
2052,2025-03-07 11:10:54.527,505.0
2053,2025-03-07 11:10:54.577,506.0
2054,2025-03-07 11:10:54.627,492.0
2055,2025-03-07 11:10:54.677,470.0
2056,2025-03-07 11:10:54.728,424.0
2057,2025-03-07 11:10:54.778,677.0
2058,2025-03-07 11:10:54.828,641.0
2059,2025-03-07 11:10:54.878,357.0
2060,2025-03-07 11:10:54.929,541.0
2061,2025-03-07 11:10:54.979,528.0
2062,2025-03-07 11:10:55.029,420.0
2063,2025-03-07 11:10:55.080,479.0
2064,2025-03-07 11:10:55.130,682.0
2065,2025-03-07 11:10:55.180,519.0
2066,2025-03-07 11:10:55.230,442.0
2067,2025-03-07 11:10:55.281,716.0
2068,2025-03-07 11:10:55.331,459.0
2069,2025-03-07 11:10:55.381,771.0
2070,2025-03-07 11:10:55.432,306.0
2071,2025-03-07 11:10:55.482,659.0
2072,2025-03-07 11:10:55.532,684.0
2073,2025-03-07 11:10:55.582,660.0
2074,2025-03-07 11:10:55.633,530.0
2075,2025-03-07 11:10:55.683,512.0
2076,2025-03-07 11:10:55.733,496.0
2077,2025-03-07 11:10:55.783,515.0
2078,2025-03-07 11:10:55.834,490.0
2079,2025-03-07 11:10:55.884,499.0
2080,2025-03-07 11:10:55.934,501.0
2081,2025-03-07 11:10:55.985,494.0
2082,2025-03-07 11:10:56.035,490.0
2083,2025-03-07 11:10:56.085,502.0
2084,2025-03-07 11:10:56.136,488.0
2085,2025-03-07 11:10:56.185,453.0
2086,2025-03-07 11:10:56.236,454.0
2087,2025-03-07 11:10:56.286,504.0
2088,2025-03-07 11:10:56.336,462.0
2089,2025-03-07 11:10:56.387,492.0
2090,2025-03-07 11:10:56.437,491.0
2091,2025-03-07 11:10:56.487,469.0
2092,2025-03-07 11:10:56.538,510.0
2093,2025-03-07 11:10:56.588,502.0
2094,2025-03-07 11:10:56.638,512.0
2095,2025-03-07 11:10:56.689,493.0
2096,2025-03-07 11:10:56.739,486.0
2097,2025-03-07 11:10:56.789,487.0
2098,2025-03-07 11:10:56.840,496.0
2099,2025-03-07 11:10:56.890,474.0
2100,2025-03-07 11:10:56.940,489.0
2101,2025-03-07 11:10:56.990,483.0
2102,2025-03-07 11:10:57.041,479.0
2103,2025-03-07 11:10:57.091,535.0
2104,2025-03-07 11:10:57.141,514.0
2105,2025-03-07 11:10:57.192,510.0
2106,2025-03-07 11:10:57.242,473.0
2107,2025-03-07 11:10:57.292,490.0
2108,2025-03-07 11:10:57.342,469.0
2109,2025-03-07 11:10:57.392,338.0
2110,2025-03-07 11:10:57.443,501.0
2111,2025-03-07 11:10:57.493,314.0
2112,2025-03-07 11:10:57.543,360.0
2113,2025-03-07 11:10:57.594,360.0
2114,2025-03-07 11:10:57.644,603.0
2115,2025-03-07 11:10:57.694,463.0
2116,2025-03-07 11:10:57.744,513.0
2117,2025-03-07 11:10:57.795,488.0
2118,2025-03-07 11:10:57.845,492.0
2119,2025-03-07 11:10:57.895,399.0
2120,2025-03-07 11:10:57.945,623.0
2121,2025-03-07 11:10:57.996,690.0
2122,2025-03-07 11:10:58.046,397.0
2123,2025-03-07 11:10:58.096,520.0
2124,2025-03-07 11:10:58.146,503.0
2125,2025-03-07 11:10:58.197,499.0
2126,2025-03-07 11:10:58.247,495.0
2127,2025-03-07 11:10:58.297,451.0
2128,2025-03-07 11:10:58.348,471.0
2129,2025-03-07 11:10:58.398,485.0
2130,2025-03-07 11:10:58.448,460.0
2131,2025-03-07 11:10:58.499,742.0
2132,2025-03-07 11:10:58.549,432.0
2133,2025-03-07 11:10:58.599,282.0
2134,2025-03-07 11:10:58.650,594.0
2135,2025-03-07 11:10:58.700,267.0
2136,2025-03-07 11:10:58.750,452.0
2137,2025-03-07 11:10:58.800,308.0
2138,2025-03-07 11:10:58.851,727.0
2139,2025-03-07 11:10:58.901,425.0
2140,2025-03-07 11:10:58.951,484.0
2141,2025-03-07 11:10:59.002,476.0
2142,2025-03-07 11:10:59.052,564.0
2143,2025-03-07 11:10:59.102,678.0
2144,2025-03-07 11:10:59.152,395.0
2145,2025-03-07 11:10:59.203,387.0
2146,2025-03-07 11:10:59.253,469.0
2147,2025-03-07 11:10:59.303,764.0
2148,2025-03-07 11:10:59.354,429.0
2149,2025-03-07 11:10:59.404,790.0
2150,2025-03-07 11:10:59.454,421.0
2151,2025-03-07 11:10:59.504,433.0
2152,2025-03-07 11:10:59.555,412.0
2153,2025-03-07 11:10:59.605,450.0
2154,2025-03-07 11:10:59.655,725.0
2155,2025-03-07 11:10:59.706,471.0
2156,2025-03-07 11:10:59.756,722.0
2157,2025-03-07 11:10:59.806,774.0
2158,2025-03-07 11:10:59.856,446.0
2159,2025-03-07 11:10:59.907,434.0
2160,2025-03-07 11:10:59.957,400.0
2161,2025-03-07 11:11:00.007,692.0
2162,2025-03-07 11:11:00.057,776.0
2163,2025-03-07 11:11:00.108,452.0
2164,2025-03-07 11:11:00.158,499.0
2165,2025-03-07 11:11:00.208,443.0
2166,2025-03-07 11:11:00.259,485.0
2167,2025-03-07 11:11:00.309,516.0
2168,2025-03-07 11:11:00.359,436.0
2169,2025-03-07 11:11:00.409,762.0
2170,2025-03-07 11:11:00.460,823.0
2171,2025-03-07 11:11:00.510,812.0
2172,2025-03-07 11:11:00.560,624.0
2173,2025-03-07 11:11:00.611,383.0
2174,2025-03-07 11:11:00.661,531.0
2175,2025-03-07 11:11:00.711,416.0
2176,2025-03-07 11:11:00.761,414.0
2177,2025-03-07 11:11:00.812,535.0
2178,2025-03-07 11:11:00.862,426.0
2179,2025-03-07 11:11:00.912,418.0
2180,2025-03-07 11:11:00.963,448.0
2181,2025-03-07 11:11:01.013,451.0
2182,2025-03-07 11:11:01.063,430.0
2183,2025-03-07 11:11:01.113,434.0
2184,2025-03-07 11:11:01.164,634.0
2185,2025-03-07 11:11:01.214,507.0
2186,2025-03-07 11:11:01.264,452.0
2187,2025-03-07 11:11:01.314,449.0
2188,2025-03-07 11:11:01.365,454.0
2189,2025-03-07 11:11:01.415,654.0
2190,2025-03-07 11:11:01.465,414.0
2191,2025-03-07 11:11:01.516,403.0
2192,2025-03-07 11:11:01.566,440.0
2193,2025-03-07 11:11:01.616,496.0
2194,2025-03-07 11:11:01.667,542.0
2195,2025-03-07 11:11:01.717,556.0
2196,2025-03-07 11:11:01.767,784.0
2197,2025-03-07 11:11:01.817,681.0
2198,2025-03-07 11:11:01.867,272.0
2199,2025-03-07 11:11:01.918,411.0
2200,2025-03-07 11:11:01.968,380.0
2201,2025-03-07 11:11:02.018,588.0
2202,2025-03-07 11:11:02.069,201.0
2203,2025-03-07 11:11:02.119,651.0
2204,2025-03-07 11:11:02.169,430.0
2205,2025-03-07 11:11:02.220,700.0
2206,2025-03-07 11:11:02.270,631.0
2207,2025-03-07 11:11:02.320,674.0
2208,2025-03-07 11:11:02.371,418.0
2209,2025-03-07 11:11:02.421,683.0
2210,2025-03-07 11:11:02.471,467.0
2211,2025-03-07 11:11:02.521,497.0
2212,2025-03-07 11:11:02.572,732.0
2213,2025-03-07 11:11:02.622,455.0
2214,2025-03-07 11:11:02.672,710.0
2215,2025-03-07 11:11:02.722,415.0
2216,2025-03-07 11:11:02.773,503.0
2217,2025-03-07 11:11:02.823,462.0
2218,2025-03-07 11:11:02.873,467.0
2219,2025-03-07 11:11:02.924,508.0
2220,2025-03-07 11:11:02.974,506.0
2221,2025-03-07 11:11:03.024,499.0
2222,2025-03-07 11:11:03.075,749.0
2223,2025-03-07 11:11:03.125,394.0
2224,2025-03-07 11:11:03.175,556.0
2225,2025-03-07 11:11:03.225,454.0
2226,2025-03-07 11:11:03.276,761.0
2227,2025-03-07 11:11:03.326,464.0
2228,2025-03-07 11:11:03.376,393.0
2229,2025-03-07 11:11:03.426,555.0
2230,2025-03-07 11:11:03.477,448.0
2231,2025-03-07 11:11:03.527,462.0
2232,2025-03-07 11:11:03.577,703.0
2233,2025-03-07 11:11:03.628,449.0
2234,2025-03-07 11:11:03.678,493.0
2235,2025-03-07 11:11:03.728,430.0
2236,2025-03-07 11:11:03.778,475.0
2237,2025-03-07 11:11:03.829,602.0
2238,2025-03-07 11:11:03.879,416.0
2239,2025-03-07 11:11:03.929,437.0
2240,2025-03-07 11:11:03.980,441.0
2241,2025-03-07 11:11:04.030,589.0
2242,2025-03-07 11:11:04.080,790.0
2243,2025-03-07 11:11:04.130,501.0
2244,2025-03-07 11:11:04.181,512.0
2245,2025-03-07 11:11:04.231,496.0
2246,2025-03-07 11:11:04.281,478.0
2247,2025-03-07 11:11:04.332,373.0
2248,2025-03-07 11:11:04.382,384.0
2249,2025-03-07 11:11:04.432,409.0
2250,2025-03-07 11:11:04.482,596.0
2251,2025-03-07 11:11:04.532,545.0
2252,2025-03-07 11:11:04.583,397.0
2253,2025-03-07 11:11:04.633,764.0
2254,2025-03-07 11:11:04.683,427.0
2255,2025-03-07 11:11:04.734,422.0
2256,2025-03-07 11:11:04.784,435.0
2257,2025-03-07 11:11:04.834,393.0
2258,2025-03-07 11:11:04.885,434.0
2259,2025-03-07 11:11:04.935,422.0
2260,2025-03-07 11:11:04.985,498.0
2261,2025-03-07 11:11:05.035,457.0
2262,2025-03-07 11:11:05.086,368.0
2263,2025-03-07 11:11:05.136,409.0
2264,2025-03-07 11:11:05.186,461.0
2265,2025-03-07 11:11:05.237,604.0
2266,2025-03-07 11:11:05.287,488.0
2267,2025-03-07 11:11:05.337,600.0
2268,2025-03-07 11:11:05.388,575.0
2269,2025-03-07 11:11:05.438,446.0
2270,2025-03-07 11:11:05.488,420.0
2271,2025-03-07 11:11:05.538,465.0
2272,2025-03-07 11:11:05.589,471.0
2273,2025-03-07 11:11:05.639,644.0
2274,2025-03-07 11:11:05.689,420.0
2275,2025-03-07 11:11:05.739,656.0
2276,2025-03-07 11:11:05.790,405.0
2277,2025-03-07 11:11:05.840,432.0
2278,2025-03-07 11:11:05.890,782.0
2279,2025-03-07 11:11:05.941,493.0
2280,2025-03-07 11:11:05.991,413.0
2281,2025-03-07 11:11:06.041,501.0
2282,2025-03-07 11:11:06.092,623.0
2283,2025-03-07 11:11:06.142,424.0
2284,2025-03-07 11:11:06.192,390.0
2285,2025-03-07 11:11:06.242,449.0
2286,2025-03-07 11:11:06.292,479.0
2287,2025-03-07 11:11:06.343,418.0
2288,2025-03-07 11:11:06.393,476.0
2289,2025-03-07 11:11:06.443,386.0
2290,2025-03-07 11:11:06.494,429.0
2291,2025-03-07 11:11:06.544,402.0
2292,2025-03-07 11:11:06.594,705.0
2293,2025-03-07 11:11:06.644,357.0
2294,2025-03-07 11:11:06.695,404.0
2295,2025-03-07 11:11:06.745,457.0
2296,2025-03-07 11:11:06.795,623.0
2297,2025-03-07 11:11:06.845,617.0
2298,2025-03-07 11:11:06.896,466.0
2299,2025-03-07 11:11:06.946,445.0
2300,2025-03-07 11:11:06.996,403.0
2301,2025-03-07 11:11:07.047,431.0
2302,2025-03-07 11:11:07.097,423.0
2303,2025-03-07 11:11:07.147,482.0
2304,2025-03-07 11:11:07.197,449.0
2305,2025-03-07 11:11:07.247,503.0
2306,2025-03-07 11:11:07.298,505.0
2307,2025-03-07 11:11:07.348,488.0
2308,2025-03-07 11:11:07.398,508.0
2309,2025-03-07 11:11:07.449,510.0
2310,2025-03-07 11:11:07.499,499.0
2311,2025-03-07 11:11:07.550,754.0
2312,2025-03-07 11:11:07.600,481.0
2313,2025-03-07 11:11:07.650,491.0
2314,2025-03-07 11:11:07.700,532.0
2315,2025-03-07 11:11:07.751,478.0
2316,2025-03-07 11:11:07.801,423.0
2317,2025-03-07 11:11:07.851,480.0
2318,2025-03-07 11:11:07.902,443.0
2319,2025-03-07 11:11:07.952,411.0
2320,2025-03-07 11:11:08.002,433.0
2321,2025-03-07 11:11:08.052,441.0
2322,2025-03-07 11:11:08.103,499.0
2323,2025-03-07 11:11:08.153,702.0
2324,2025-03-07 11:11:08.203,623.0
2325,2025-03-07 11:11:08.253,660.0
2326,2025-03-07 11:11:08.304,529.0
2327,2025-03-07 11:11:08.354,766.0
2328,2025-03-07 11:11:08.404,428.0
2329,2025-03-07 11:11:08.455,477.0
2330,2025-03-07 11:11:08.505,504.0
2331,2025-03-07 11:11:08.555,464.0
2332,2025-03-07 11:11:08.606,438.0
2333,2025-03-07 11:11:08.656,723.0
2334,2025-03-07 11:11:08.706,423.0
2335,2025-03-07 11:11:08.756,432.0
2336,2025-03-07 11:11:08.807,695.0
2337,2025-03-07 11:11:08.857,480.0
2338,2025-03-07 11:11:08.907,454.0
2339,2025-03-07 11:11:08.957,442.0
2340,2025-03-07 11:11:09.008,500.0
2341,2025-03-07 11:11:09.058,690.0
2342,2025-03-07 11:11:09.108,485.0
2343,2025-03-07 11:11:09.158,425.0
2344,2025-03-07 11:11:09.209,684.0
2345,2025-03-07 11:11:09.259,414.0
2346,2025-03-07 11:11:09.309,460.0
2347,2025-03-07 11:11:09.360,653.0
2348,2025-03-07 11:11:09.410,484.0
2349,2025-03-07 11:11:09.460,476.0
2350,2025-03-07 11:11:09.511,499.0
2351,2025-03-07 11:11:09.561,568.0
2352,2025-03-07 11:11:09.611,461.0
2353,2025-03-07 11:11:09.661,435.0
2354,2025-03-07 11:11:09.712,443.0
2355,2025-03-07 11:11:09.762,415.0
2356,2025-03-07 11:11:09.812,505.0
2357,2025-03-07 11:11:09.862,495.0
2358,2025-03-07 11:11:09.913,468.0
2359,2025-03-07 11:11:09.963,469.0
2360,2025-03-07 11:11:10.013,759.0
2361,2025-03-07 11:11:10.064,422.0
2362,2025-03-07 11:11:10.114,543.0
2363,2025-03-07 11:11:10.164,533.0
2364,2025-03-07 11:11:10.214,439.0
2365,2025-03-07 11:11:10.265,435.0
2366,2025-03-07 11:11:10.315,413.0
2367,2025-03-07 11:11:10.365,532.0
2368,2025-03-07 11:11:10.416,782.0
2369,2025-03-07 11:11:10.466,491.0
2370,2025-03-07 11:11:10.516,471.0
2371,2025-03-07 11:11:10.566,455.0
2372,2025-03-07 11:11:10.617,444.0
2373,2025-03-07 11:11:10.667,687.0
2374,2025-03-07 11:11:10.717,457.0
2375,2025-03-07 11:11:10.767,519.0
2376,2025-03-07 11:11:10.818,426.0
2377,2025-03-07 11:11:10.868,431.0
2378,2025-03-07 11:11:10.918,542.0
2379,2025-03-07 11:11:10.969,407.0
2380,2025-03-07 11:11:11.019,499.0
2381,2025-03-07 11:11:11.069,464.0
2382,2025-03-07 11:11:11.119,503.0
2383,2025-03-07 11:11:11.170,371.0
2384,2025-03-07 11:11:11.220,501.0
2385,2025-03-07 11:11:11.270,417.0
2386,2025-03-07 11:11:11.321,433.0
2387,2025-03-07 11:11:11.371,507.0
2388,2025-03-07 11:11:11.421,455.0
2389,2025-03-07 11:11:11.471,480.0
2390,2025-03-07 11:11:11.522,399.0
2391,2025-03-07 11:11:11.572,441.0
2392,2025-03-07 11:11:11.622,425.0
2393,2025-03-07 11:11:11.673,474.0
2394,2025-03-07 11:11:11.723,424.0
2395,2025-03-07 11:11:11.773,443.0
2396,2025-03-07 11:11:11.824,428.0
2397,2025-03-07 11:11:11.874,446.0
2398,2025-03-07 11:11:11.924,521.0
2399,2025-03-07 11:11:11.974,472.0
2400,2025-03-07 11:11:12.025,473.0
2401,2025-03-07 11:11:12.075,425.0
2402,2025-03-07 11:11:12.125,471.0
2403,2025-03-07 11:11:12.176,489.0
2404,2025-03-07 11:11:12.226,666.0
2405,2025-03-07 11:11:12.276,422.0
2406,2025-03-07 11:11:12.326,486.0
2407,2025-03-07 11:11:12.377,500.0
2408,2025-03-07 11:11:12.427,488.0
2409,2025-03-07 11:11:12.477,468.0
2410,2025-03-07 11:11:12.527,554.0
2411,2025-03-07 11:11:12.578,453.0
2412,2025-03-07 11:11:12.628,399.0
2413,2025-03-07 11:11:12.678,431.0
2414,2025-03-07 11:11:12.729,394.0
2415,2025-03-07 11:11:12.779,429.0
2416,2025-03-07 11:11:12.829,473.0
2417,2025-03-07 11:11:12.879,460.0
2418,2025-03-07 11:11:12.930,821.0
2419,2025-03-07 11:11:12.980,607.0
2420,2025-03-07 11:11:13.030,574.0
2421,2025-03-07 11:11:13.081,706.0
2422,2025-03-07 11:11:13.131,416.0
2423,2025-03-07 11:11:13.181,496.0
2424,2025-03-07 11:11:13.232,406.0
2425,2025-03-07 11:11:13.282,440.0
2426,2025-03-07 11:11:13.332,398.0
2427,2025-03-07 11:11:13.382,666.0
2428,2025-03-07 11:11:13.432,537.0
2429,2025-03-07 11:11:13.483,451.0
2430,2025-03-07 11:11:13.533,460.0
2431,2025-03-07 11:11:13.583,437.0
2432,2025-03-07 11:11:13.634,558.0
2433,2025-03-07 11:11:13.684,540.0
2434,2025-03-07 11:11:13.734,701.0
2435,2025-03-07 11:11:13.784,442.0
2436,2025-03-07 11:11:13.835,610.0
2437,2025-03-07 11:11:13.885,492.0
2438,2025-03-07 11:11:13.935,440.0
2439,2025-03-07 11:11:13.986,475.0
2440,2025-03-07 11:11:14.036,475.0
2441,2025-03-07 11:11:14.086,470.0
2442,2025-03-07 11:11:14.136,506.0
2443,2025-03-07 11:11:14.187,772.0
2444,2025-03-07 11:11:14.237,739.0
2445,2025-03-07 11:11:14.287,675.0
2446,2025-03-07 11:11:14.338,421.0
2447,2025-03-07 11:11:14.388,492.0
2448,2025-03-07 11:11:14.438,481.0
2449,2025-03-07 11:11:14.489,458.0
2450,2025-03-07 11:11:14.539,459.0
2451,2025-03-07 11:11:14.589,497.0
2452,2025-03-07 11:11:14.639,437.0
2453,2025-03-07 11:11:14.690,751.0
2454,2025-03-07 11:11:14.740,426.0
2455,2025-03-07 11:11:14.790,447.0
2456,2025-03-07 11:11:14.840,484.0
2457,2025-03-07 11:11:14.891,397.0
2458,2025-03-07 11:11:14.941,384.0
2459,2025-03-07 11:11:14.991,395.0
2460,2025-03-07 11:11:15.042,633.0
2461,2025-03-07 11:11:15.092,514.0
2462,2025-03-07 11:11:15.142,374.0
2463,2025-03-07 11:11:15.192,694.0
2464,2025-03-07 11:11:15.242,666.0
2465,2025-03-07 11:11:15.293,370.0
2466,2025-03-07 11:11:15.343,476.0
2467,2025-03-07 11:11:15.393,393.0
2468,2025-03-07 11:11:15.444,769.0
2469,2025-03-07 11:11:15.494,673.0
2470,2025-03-07 11:11:15.544,324.0
2471,2025-03-07 11:11:15.594,390.0
2472,2025-03-07 11:11:15.645,383.0
2473,2025-03-07 11:11:15.695,703.0
2474,2025-03-07 11:11:15.745,502.0
2475,2025-03-07 11:11:15.796,652.0
2476,2025-03-07 11:11:15.846,459.0
2477,2025-03-07 11:11:15.896,615.0
2478,2025-03-07 11:11:15.946,470.0
2479,2025-03-07 11:11:15.997,642.0
2480,2025-03-07 11:11:16.047,457.0
2481,2025-03-07 11:11:16.097,454.0
2482,2025-03-07 11:11:16.148,464.0
2483,2025-03-07 11:11:16.198,429.0
2484,2025-03-07 11:11:16.248,684.0
2485,2025-03-07 11:11:16.298,618.0
2486,2025-03-07 11:11:16.349,411.0
2487,2025-03-07 11:11:16.399,622.0
2488,2025-03-07 11:11:16.449,600.0
2489,2025-03-07 11:11:16.500,489.0
2490,2025-03-07 11:11:16.550,439.0
2491,2025-03-07 11:11:16.600,489.0
2492,2025-03-07 11:11:16.650,459.0
2493,2025-03-07 11:11:16.701,477.0
2494,2025-03-07 11:11:16.751,493.0
2495,2025-03-07 11:11:16.801,532.0
2496,2025-03-07 11:11:16.852,484.0
2497,2025-03-07 11:11:16.902,484.0
2498,2025-03-07 11:11:16.952,597.0
2499,2025-03-07 11:11:17.003,494.0
2500,2025-03-07 11:11:17.053,516.0
2501,2025-03-07 11:11:17.103,506.0
2502,2025-03-07 11:11:17.153,679.0
2503,2025-03-07 11:11:17.204,491.0
2504,2025-03-07 11:11:17.254,462.0
2505,2025-03-07 11:11:17.304,473.0
2506,2025-03-07 11:11:17.355,466.0
2507,2025-03-07 11:11:17.405,636.0
2508,2025-03-07 11:11:17.455,435.0
2509,2025-03-07 11:11:17.505,490.0
2510,2025-03-07 11:11:17.556,649.0
2511,2025-03-07 11:11:17.606,444.0
2512,2025-03-07 11:11:17.656,618.0
2513,2025-03-07 11:11:17.707,432.0
2514,2025-03-07 11:11:17.757,442.0
2515,2025-03-07 11:11:17.807,437.0
2516,2025-03-07 11:11:17.857,620.0
2517,2025-03-07 11:11:17.908,475.0
2518,2025-03-07 11:11:17.958,482.0
2519,2025-03-07 11:11:18.008,652.0
2520,2025-03-07 11:11:18.058,763.0
2521,2025-03-07 11:11:18.109,573.0
2522,2025-03-07 11:11:18.159,611.0
2523,2025-03-07 11:11:18.209,423.0
2524,2025-03-07 11:11:18.260,418.0
2525,2025-03-07 11:11:18.310,412.0
2526,2025-03-07 11:11:18.360,631.0
2527,2025-03-07 11:11:18.411,565.0
2528,2025-03-07 11:11:18.461,485.0
2529,2025-03-07 11:11:18.511,639.0
2530,2025-03-07 11:11:18.561,465.0
2531,2025-03-07 11:11:18.612,661.0
2532,2025-03-07 11:11:18.662,440.0
2533,2025-03-07 11:11:18.712,446.0
2534,2025-03-07 11:11:18.762,312.0
2535,2025-03-07 11:11:18.813,477.0
2536,2025-03-07 11:11:18.863,571.0
2537,2025-03-07 11:11:18.913,401.0
2538,2025-03-07 11:11:18.964,513.0
2539,2025-03-07 11:11:19.014,399.0
2540,2025-03-07 11:11:19.064,526.0
2541,2025-03-07 11:11:19.114,518.0
2542,2025-03-07 11:11:19.165,487.0
2543,2025-03-07 11:11:19.215,471.0
2544,2025-03-07 11:11:19.266,658.0
2545,2025-03-07 11:11:19.316,402.0
2546,2025-03-07 11:11:19.366,420.0
2547,2025-03-07 11:11:19.416,644.0
2548,2025-03-07 11:11:19.466,430.0
2549,2025-03-07 11:11:19.517,419.0
2550,2025-03-07 11:11:19.567,462.0
2551,2025-03-07 11:11:19.617,504.0
2552,2025-03-07 11:11:19.667,700.0
2553,2025-03-07 11:11:19.718,376.0
2554,2025-03-07 11:11:19.768,581.0
2555,2025-03-07 11:11:19.819,625.0
2556,2025-03-07 11:11:19.868,642.0
2557,2025-03-07 11:11:19.919,445.0
2558,2025-03-07 11:11:19.969,538.0
2559,2025-03-07 11:11:20.020,703.0
2560,2025-03-07 11:11:20.070,505.0
2561,2025-03-07 11:11:20.120,357.0
2562,2025-03-07 11:11:20.170,328.0
2563,2025-03-07 11:11:20.221,502.0
2564,2025-03-07 11:11:20.271,446.0
2565,2025-03-07 11:11:20.321,688.0
2566,2025-03-07 11:11:20.372,609.0
2567,2025-03-07 11:11:20.422,466.0
2568,2025-03-07 11:11:20.472,484.0
2569,2025-03-07 11:11:20.522,450.0
2570,2025-03-07 11:11:20.573,397.0
2571,2025-03-07 11:11:20.623,637.0
2572,2025-03-07 11:11:20.673,460.0
2573,2025-03-07 11:11:20.724,694.0
2574,2025-03-07 11:11:20.774,410.0
2575,2025-03-07 11:11:20.824,546.0
2576,2025-03-07 11:11:20.874,383.0
2577,2025-03-07 11:11:20.925,565.0
2578,2025-03-07 11:11:20.975,531.0
2579,2025-03-07 11:11:21.025,722.0
2580,2025-03-07 11:11:21.075,402.0
2581,2025-03-07 11:11:21.126,485.0
2582,2025-03-07 11:11:21.176,416.0
2583,2025-03-07 11:11:21.226,669.0
2584,2025-03-07 11:11:21.277,701.0
2585,2025-03-07 11:11:21.327,406.0
2586,2025-03-07 11:11:21.377,417.0
2587,2025-03-07 11:11:21.428,582.0
2588,2025-03-07 11:11:21.478,354.0
2589,2025-03-07 11:11:21.528,451.0
2590,2025-03-07 11:11:21.578,450.0
2591,2025-03-07 11:11:21.629,414.0
2592,2025-03-07 11:11:21.679,552.0
2593,2025-03-07 11:11:21.729,363.0
2594,2025-03-07 11:11:21.779,600.0
2595,2025-03-07 11:11:21.830,535.0
2596,2025-03-07 11:11:21.880,665.0
2597,2025-03-07 11:11:21.930,424.0
2598,2025-03-07 11:11:21.981,585.0
2599,2025-03-07 11:11:22.031,430.0
2600,2025-03-07 11:11:22.081,430.0
2601,2025-03-07 11:11:22.131,428.0
2602,2025-03-07 11:11:22.182,398.0
2603,2025-03-07 11:11:22.232,719.0
2604,2025-03-07 11:11:22.282,453.0
2605,2025-03-07 11:11:22.332,511.0
2606,2025-03-07 11:11:22.383,489.0
2607,2025-03-07 11:11:22.433,531.0
2608,2025-03-07 11:11:22.483,417.0
2609,2025-03-07 11:11:22.534,651.0
2610,2025-03-07 11:11:22.584,380.0
2611,2025-03-07 11:11:22.634,371.0
2612,2025-03-07 11:11:22.684,411.0
2613,2025-03-07 11:11:22.735,563.0
2614,2025-03-07 11:11:22.785,687.0
2615,2025-03-07 11:11:22.835,490.0
2616,2025-03-07 11:11:22.886,583.0
2617,2025-03-07 11:11:22.936,493.0
2618,2025-03-07 11:11:22.986,458.0
2619,2025-03-07 11:11:23.037,563.0
2620,2025-03-07 11:11:23.087,384.0
2621,2025-03-07 11:11:23.137,436.0
2622,2025-03-07 11:11:23.187,768.0
2623,2025-03-07 11:11:23.238,440.0
2624,2025-03-07 11:11:23.288,567.0
2625,2025-03-07 11:11:23.338,659.0
2626,2025-03-07 11:11:23.389,443.0
2627,2025-03-07 11:11:23.439,669.0
2628,2025-03-07 11:11:23.489,495.0
2629,2025-03-07 11:11:23.539,643.0
2630,2025-03-07 11:11:23.590,444.0
2631,2025-03-07 11:11:23.640,540.0
2632,2025-03-07 11:11:23.690,333.0
2633,2025-03-07 11:11:23.740,703.0
2634,2025-03-07 11:11:23.791,596.0
2635,2025-03-07 11:11:23.841,688.0
2636,2025-03-07 11:11:23.891,514.0
2637,2025-03-07 11:11:23.942,406.0
2638,2025-03-07 11:11:23.992,573.0
2639,2025-03-07 11:11:24.042,528.0
2640,2025-03-07 11:11:24.092,335.0
2641,2025-03-07 11:11:24.142,554.0
2642,2025-03-07 11:11:24.193,405.0
2643,2025-03-07 11:11:24.243,408.0
2644,2025-03-07 11:11:24.293,431.0
2645,2025-03-07 11:11:24.344,407.0
2646,2025-03-07 11:11:24.394,695.0
2647,2025-03-07 11:11:24.444,584.0
2648,2025-03-07 11:11:24.494,435.0
2649,2025-03-07 11:11:24.545,379.0
2650,2025-03-07 11:11:24.595,699.0
2651,2025-03-07 11:11:24.645,557.0
2652,2025-03-07 11:11:24.695,528.0
2653,2025-03-07 11:11:24.746,559.0
2654,2025-03-07 11:11:24.796,502.0
2655,2025-03-07 11:11:24.846,546.0
2656,2025-03-07 11:11:24.897,536.0
2657,2025-03-07 11:11:24.947,567.0
2658,2025-03-07 11:11:24.997,660.0
2659,2025-03-07 11:11:25.048,419.0
2660,2025-03-07 11:11:25.098,576.0
2661,2025-03-07 11:11:25.148,399.0
2662,2025-03-07 11:11:25.199,441.0
2663,2025-03-07 11:11:25.249,421.0
2664,2025-03-07 11:11:25.299,436.0
2665,2025-03-07 11:11:25.350,403.0
2666,2025-03-07 11:11:25.400,586.0
2667,2025-03-07 11:11:25.450,497.0
2668,2025-03-07 11:11:25.500,411.0
2669,2025-03-07 11:11:25.550,463.0
2670,2025-03-07 11:11:25.601,413.0
2671,2025-03-07 11:11:25.651,592.0
2672,2025-03-07 11:11:25.701,375.0
2673,2025-03-07 11:11:25.752,733.0
2674,2025-03-07 11:11:25.802,726.0
2675,2025-03-07 11:11:25.852,527.0
2676,2025-03-07 11:11:25.903,533.0
2677,2025-03-07 11:11:25.953,718.0
2678,2025-03-07 11:11:26.003,683.0
2679,2025-03-07 11:11:26.053,564.0
2680,2025-03-07 11:11:26.104,595.0
2681,2025-03-07 11:11:26.154,397.0
2682,2025-03-07 11:11:26.204,654.0
2683,2025-03-07 11:11:26.255,468.0
2684,2025-03-07 11:11:26.305,427.0
2685,2025-03-07 11:11:26.355,454.0
2686,2025-03-07 11:11:26.405,356.0
2687,2025-03-07 11:11:26.456,360.0
2688,2025-03-07 11:11:26.506,361.0
2689,2025-03-07 11:11:26.556,417.0
2690,2025-03-07 11:11:26.607,520.0
2691,2025-03-07 11:11:26.657,444.0
2692,2025-03-07 11:11:26.707,431.0
2693,2025-03-07 11:11:26.757,430.0
2694,2025-03-07 11:11:26.808,377.0
2695,2025-03-07 11:11:26.858,695.0
2696,2025-03-07 11:11:26.908,652.0
2697,2025-03-07 11:11:26.959,577.0
2698,2025-03-07 11:11:27.009,701.0
2699,2025-03-07 11:11:27.059,467.0
2700,2025-03-07 11:11:27.109,457.0
2701,2025-03-07 11:11:27.160,404.0
2702,2025-03-07 11:11:27.210,413.0
2703,2025-03-07 11:11:27.260,439.0
2704,2025-03-07 11:11:27.310,440.0
2705,2025-03-07 11:11:27.361,649.0
2706,2025-03-07 11:11:27.411,673.0
2707,2025-03-07 11:11:27.461,349.0
2708,2025-03-07 11:11:27.512,427.0
2709,2025-03-07 11:11:27.562,367.0
2710,2025-03-07 11:11:27.612,433.0
2711,2025-03-07 11:11:27.662,315.0
2712,2025-03-07 11:11:27.713,629.0
2713,2025-03-07 11:11:27.763,419.0
2714,2025-03-07 11:11:27.813,377.0
2715,2025-03-07 11:11:27.863,447.0
2716,2025-03-07 11:11:27.914,678.0
2717,2025-03-07 11:11:27.964,427.0
2718,2025-03-07 11:11:28.014,394.0
2719,2025-03-07 11:11:28.065,387.0
2720,2025-03-07 11:11:28.115,724.0
2721,2025-03-07 11:11:28.165,432.0
2722,2025-03-07 11:11:28.216,667.0
2723,2025-03-07 11:11:28.266,501.0
2724,2025-03-07 11:11:28.316,484.0
2725,2025-03-07 11:11:28.367,678.0
2726,2025-03-07 11:11:28.416,616.0
2727,2025-03-07 11:11:28.467,381.0
2728,2025-03-07 11:11:28.517,513.0
2729,2025-03-07 11:11:28.567,329.0
2730,2025-03-07 11:11:28.618,368.0
2731,2025-03-07 11:11:28.668,444.0
2732,2025-03-07 11:11:28.718,642.0
2733,2025-03-07 11:11:28.768,580.0
2734,2025-03-07 11:11:28.819,569.0
2735,2025-03-07 11:11:28.869,446.0
2736,2025-03-07 11:11:28.920,422.0
2737,2025-03-07 11:11:28.970,511.0
2738,2025-03-07 11:11:29.020,414.0
2739,2025-03-07 11:11:29.070,417.0
2740,2025-03-07 11:11:29.120,511.0
2741,2025-03-07 11:11:29.171,657.0
2742,2025-03-07 11:11:29.221,367.0
2743,2025-03-07 11:11:29.271,620.0
2744,2025-03-07 11:11:29.322,373.0
2745,2025-03-07 11:11:29.372,559.0
2746,2025-03-07 11:11:29.422,487.0
2747,2025-03-07 11:11:29.473,461.0
2748,2025-03-07 11:11:29.523,510.0
2749,2025-03-07 11:11:29.573,608.0
2750,2025-03-07 11:11:29.623,392.0
2751,2025-03-07 11:11:29.674,660.0
2752,2025-03-07 11:11:29.724,394.0
2753,2025-03-07 11:11:29.774,376.0
2754,2025-03-07 11:11:29.825,346.0
2755,2025-03-07 11:11:29.875,451.0
2756,2025-03-07 11:11:29.925,561.0
2757,2025-03-07 11:11:29.975,487.0
2758,2025-03-07 11:11:30.026,432.0
2759,2025-03-07 11:11:30.076,450.0
2760,2025-03-07 11:11:30.126,447.0
2761,2025-03-07 11:11:30.177,453.0
2762,2025-03-07 11:11:30.227,595.0
2763,2025-03-07 11:11:30.277,474.0
2764,2025-03-07 11:11:30.327,595.0
2765,2025-03-07 11:11:30.378,686.0
2766,2025-03-07 11:11:30.428,361.0
2767,2025-03-07 11:11:30.478,693.0
2768,2025-03-07 11:11:30.528,423.0
2769,2025-03-07 11:11:30.579,392.0
2770,2025-03-07 11:11:30.629,477.0
2771,2025-03-07 11:11:30.679,645.0
2772,2025-03-07 11:11:30.730,561.0
2773,2025-03-07 11:11:30.780,553.0
2774,2025-03-07 11:11:30.830,528.0
2775,2025-03-07 11:11:30.880,650.0
2776,2025-03-07 11:11:30.931,709.0
2777,2025-03-07 11:11:30.981,589.0
2778,2025-03-07 11:11:31.031,359.0
2779,2025-03-07 11:11:31.082,372.0
2780,2025-03-07 11:11:31.132,391.0
2781,2025-03-07 11:11:31.182,427.0
2782,2025-03-07 11:11:31.232,688.0
2783,2025-03-07 11:11:31.283,667.0
2784,2025-03-07 11:11:31.333,648.0
2785,2025-03-07 11:11:31.383,589.0
2786,2025-03-07 11:11:31.433,627.0
2787,2025-03-07 11:11:31.484,354.0
2788,2025-03-07 11:11:31.534,333.0
2789,2025-03-07 11:11:31.584,608.0
2790,2025-03-07 11:11:31.635,404.0
2791,2025-03-07 11:11:31.685,415.0
2792,2025-03-07 11:11:31.735,391.0
2793,2025-03-07 11:11:31.786,680.0
2794,2025-03-07 11:11:31.836,432.0
2795,2025-03-07 11:11:31.886,482.0
2796,2025-03-07 11:11:31.937,423.0
2797,2025-03-07 11:11:31.987,443.0
2798,2025-03-07 11:11:32.037,549.0
2799,2025-03-07 11:11:32.087,644.0
2800,2025-03-07 11:11:32.138,455.0
2801,2025-03-07 11:11:32.188,492.0
2802,2025-03-07 11:11:32.238,423.0
2803,2025-03-07 11:11:32.288,515.0
2804,2025-03-07 11:11:32.339,395.0
2805,2025-03-07 11:11:32.389,560.0
2806,2025-03-07 11:11:32.439,520.0
2807,2025-03-07 11:11:32.490,648.0
2808,2025-03-07 11:11:32.540,740.0
2809,2025-03-07 11:11:32.590,655.0
2810,2025-03-07 11:11:32.640,395.0
2811,2025-03-07 11:11:32.691,444.0
2812,2025-03-07 11:11:32.741,378.0
2813,2025-03-07 11:11:32.791,390.0
2814,2025-03-07 11:11:32.841,540.0
2815,2025-03-07 11:11:32.892,406.0
2816,2025-03-07 11:11:32.942,612.0
2817,2025-03-07 11:11:32.992,417.0
2818,2025-03-07 11:11:33.043,455.0
2819,2025-03-07 11:11:33.093,450.0
2820,2025-03-07 11:11:33.143,442.0
2821,2025-03-07 11:11:33.194,470.0
2822,2025-03-07 11:11:33.243,633.0
2823,2025-03-07 11:11:33.294,513.0
2824,2025-03-07 11:11:33.344,496.0
2825,2025-03-07 11:11:33.394,701.0
2826,2025-03-07 11:11:33.445,666.0
2827,2025-03-07 11:11:33.495,490.0
2828,2025-03-07 11:11:33.545,666.0
2829,2025-03-07 11:11:33.596,696.0
2830,2025-03-07 11:11:33.646,667.0
2831,2025-03-07 11:11:33.696,458.0
2832,2025-03-07 11:11:33.746,645.0
2833,2025-03-07 11:11:33.797,352.0
2834,2025-03-07 11:11:33.847,445.0
2835,2025-03-07 11:11:33.897,712.0
2836,2025-03-07 11:11:33.947,471.0
2837,2025-03-07 11:11:33.998,615.0
2838,2025-03-07 11:11:34.048,469.0
2839,2025-03-07 11:11:34.098,570.0
2840,2025-03-07 11:11:34.149,507.0
2841,2025-03-07 11:11:34.199,476.0
2842,2025-03-07 11:11:34.249,422.0
2843,2025-03-07 11:11:34.300,443.0
2844,2025-03-07 11:11:34.350,347.0
2845,2025-03-07 11:11:34.400,530.0
2846,2025-03-07 11:11:34.450,471.0
2847,2025-03-07 11:11:34.501,436.0
2848,2025-03-07 11:11:34.551,341.0
2849,2025-03-07 11:11:34.601,598.0
2850,2025-03-07 11:11:34.652,673.0
2851,2025-03-07 11:11:34.702,630.0
2852,2025-03-07 11:11:34.752,420.0
2853,2025-03-07 11:11:34.802,737.0
2854,2025-03-07 11:11:34.853,464.0
2855,2025-03-07 11:11:34.903,557.0
2856,2025-03-07 11:11:34.953,682.0
2857,2025-03-07 11:11:35.004,473.0
2858,2025-03-07 11:11:35.054,751.0
2859,2025-03-07 11:11:35.104,433.0
2860,2025-03-07 11:11:35.155,452.0
2861,2025-03-07 11:11:35.205,452.0
2862,2025-03-07 11:11:35.255,414.0
2863,2025-03-07 11:11:35.305,563.0
2864,2025-03-07 11:11:35.355,588.0
2865,2025-03-07 11:11:35.406,314.0
2866,2025-03-07 11:11:35.456,420.0
2867,2025-03-07 11:11:35.506,452.0
2868,2025-03-07 11:11:35.557,359.0
2869,2025-03-07 11:11:35.607,253.0
2870,2025-03-07 11:11:35.657,426.0
2871,2025-03-07 11:11:35.708,526.0
2872,2025-03-07 11:11:35.758,548.0
2873,2025-03-07 11:11:35.808,520.0
2874,2025-03-07 11:11:35.858,513.0
2875,2025-03-07 11:11:35.909,513.0
2876,2025-03-07 11:11:35.959,511.0
2877,2025-03-07 11:11:36.009,511.0
2878,2025-03-07 11:11:36.059,510.0
2879,2025-03-07 11:11:36.110,511.0
2880,2025-03-07 11:11:36.160,511.0
2881,2025-03-07 11:11:36.210,511.0
2882,2025-03-07 11:11:36.261,511.0
2883,2025-03-07 11:11:36.311,511.0
2884,2025-03-07 11:11:36.361,511.0
2885,2025-03-07 11:11:36.411,511.0
2886,2025-03-07 11:11:36.462,511.0
2887,2025-03-07 11:11:36.512,498.0
2888,2025-03-07 11:11:36.562,551.0
2889,2025-03-07 11:11:36.613,450.0
2890,2025-03-07 11:11:36.663,468.0
2891,2025-03-07 11:11:36.713,511.0
2892,2025-03-07 11:11:36.764,510.0
2893,2025-03-07 11:11:36.814,511.0
2894,2025-03-07 11:11:36.864,486.0
2895,2025-03-07 11:11:36.914,487.0
2896,2025-03-07 11:11:36.965,527.0
2897,2025-03-07 11:11:37.015,511.0
2898,2025-03-07 11:11:37.065,511.0
2899,2025-03-07 11:11:37.115,510.0
2900,2025-03-07 11:11:37.166,517.0
2901,2025-03-07 11:11:37.216,511.0
2902,2025-03-07 11:11:37.266,510.0
2903,2025-03-07 11:11:37.316,510.0
2904,2025-03-07 11:11:37.367,511.0
2905,2025-03-07 11:11:37.417,511.0
2906,2025-03-07 11:11:37.467,511.0
2907,2025-03-07 11:11:37.517,511.0
2908,2025-03-07 11:11:37.568,511.0
2909,2025-03-07 11:11:37.618,511.0
2910,2025-03-07 11:11:37.669,511.0
2911,2025-03-07 11:11:37.719,510.0
2912,2025-03-07 11:11:37.769,510.0
2913,2025-03-07 11:11:37.819,511.0
2914,2025-03-07 11:11:37.869,511.0
2915,2025-03-07 11:11:37.920,510.0
2916,2025-03-07 11:11:37.970,531.0
2917,2025-03-07 11:11:38.021,509.0
2918,2025-03-07 11:11:38.071,550.0
2919,2025-03-07 11:11:38.121,563.0
2920,2025-03-07 11:11:38.172,448.0
2921,2025-03-07 11:11:38.222,556.0
2922,2025-03-07 11:11:38.272,512.0
2923,2025-03-07 11:11:38.322,511.0
2924,2025-03-07 11:11:38.372,511.0
2925,2025-03-07 11:11:38.423,510.0
2926,2025-03-07 11:11:38.473,510.0
2927,2025-03-07 11:11:38.523,511.0
2928,2025-03-07 11:11:38.574,511.0
2929,2025-03-07 11:11:38.624,531.0
2930,2025-03-07 11:11:38.674,517.0
2931,2025-03-07 11:11:38.725,511.0
2932,2025-03-07 11:11:38.775,511.0
2933,2025-03-07 11:11:38.825,511.0
2934,2025-03-07 11:11:38.875,511.0
2935,2025-03-07 11:11:38.925,511.0
2936,2025-03-07 11:11:38.976,511.0
2937,2025-03-07 11:11:39.026,511.0
2938,2025-03-07 11:11:39.076,511.0
2939,2025-03-07 11:11:39.127,511.0
2940,2025-03-07 11:11:39.177,493.0
2941,2025-03-07 11:11:39.227,551.0
2942,2025-03-07 11:11:39.278,537.0
2943,2025-03-07 11:11:39.328,526.0
2944,2025-03-07 11:11:39.378,516.0
2945,2025-03-07 11:11:39.429,511.0
2946,2025-03-07 11:11:39.479,511.0
2947,2025-03-07 11:11:39.529,511.0
2948,2025-03-07 11:11:39.579,510.0
2949,2025-03-07 11:11:39.630,511.0
2950,2025-03-07 11:11:39.680,511.0
2951,2025-03-07 11:11:39.730,510.0
2952,2025-03-07 11:11:39.780,510.0
2953,2025-03-07 11:11:39.831,511.0
2954,2025-03-07 11:11:39.881,511.0
2955,2025-03-07 11:11:39.931,511.0
2956,2025-03-07 11:11:39.982,510.0
2957,2025-03-07 11:11:40.032,511.0
2958,2025-03-07 11:11:40.082,510.0
2959,2025-03-07 11:11:40.132,518.0
2960,2025-03-07 11:11:40.182,526.0
2961,2025-03-07 11:11:40.233,531.0
2962,2025-03-07 11:11:40.283,550.0
2963,2025-03-07 11:11:40.334,370.0
2964,2025-03-07 11:11:40.384,515.0
2965,2025-03-07 11:11:40.434,479.0
2966,2025-03-07 11:11:40.484,550.0
2967,2025-03-07 11:11:40.535,506.0
2968,2025-03-07 11:11:40.585,504.0
2969,2025-03-07 11:11:40.635,512.0
2970,2025-03-07 11:11:40.685,511.0
2971,2025-03-07 11:11:40.736,510.0
2972,2025-03-07 11:11:40.786,515.0
2973,2025-03-07 11:11:40.836,500.0
2974,2025-03-07 11:11:40.887,511.0
2975,2025-03-07 11:11:40.937,506.0
2976,2025-03-07 11:11:40.987,503.0
2977,2025-03-07 11:11:41.038,515.0
2978,2025-03-07 11:11:41.088,520.0
2979,2025-03-07 11:11:41.138,555.0
2980,2025-03-07 11:11:41.188,529.0
2981,2025-03-07 11:11:41.239,534.0
2982,2025-03-07 11:11:41.289,527.0
2983,2025-03-07 11:11:41.339,493.0
2984,2025-03-07 11:11:41.389,523.0
2985,2025-03-07 11:11:41.440,542.0
2986,2025-03-07 11:11:41.490,505.0
2987,2025-03-07 11:11:41.540,503.0
2988,2025-03-07 11:11:41.591,511.0
2989,2025-03-07 11:11:41.641,510.0
2990,2025-03-07 11:11:41.691,510.0
2991,2025-03-07 11:11:41.742,510.0
2992,2025-03-07 11:11:41.791,516.0
2993,2025-03-07 11:11:41.842,516.0
2994,2025-03-07 11:11:41.892,519.0
2995,2025-03-07 11:11:41.942,532.0
2996,2025-03-07 11:11:41.993,517.0
2997,2025-03-07 11:11:42.043,525.0
2998,2025-03-07 11:11:42.093,528.0
2999,2025-03-07 11:11:42.143,527.0
3000,2025-03-07 11:11:42.194,499.0
3001,2025-03-07 11:11:42.244,532.0
3002,2025-03-07 11:11:42.294,522.0
3003,2025-03-07 11:11:42.344,519.0
3004,2025-03-07 11:11:42.395,547.0
3005,2025-03-07 11:11:42.445,439.0
3006,2025-03-07 11:11:42.495,531.0
3007,2025-03-07 11:11:42.546,512.0
3008,2025-03-07 11:11:42.596,558.0
3009,2025-03-07 11:11:42.646,534.0
3010,2025-03-07 11:11:42.697,484.0
3011,2025-03-07 11:11:42.747,541.0
3012,2025-03-07 11:11:42.797,535.0
3013,2025-03-07 11:11:42.847,521.0
3014,2025-03-07 11:11:42.898,522.0
3015,2025-03-07 11:11:42.948,482.0
3016,2025-03-07 11:11:42.998,521.0
3017,2025-03-07 11:11:43.049,495.0
3018,2025-03-07 11:11:43.099,513.0
3019,2025-03-07 11:11:43.149,522.0
3020,2025-03-07 11:11:43.200,521.0
3021,2025-03-07 11:11:43.250,546.0
3022,2025-03-07 11:11:43.300,562.0
3023,2025-03-07 11:11:43.350,559.0
3024,2025-03-07 11:11:43.401,530.0
3025,2025-03-07 11:11:43.451,557.0
3026,2025-03-07 11:11:43.501,559.0
3027,2025-03-07 11:11:43.552,531.0
3028,2025-03-07 11:11:43.602,555.0
3029,2025-03-07 11:11:43.652,537.0
3030,2025-03-07 11:11:43.703,464.0
3031,2025-03-07 11:11:43.753,436.0
3032,2025-03-07 11:11:43.803,530.0
3033,2025-03-07 11:11:43.853,539.0
3034,2025-03-07 11:11:43.904,516.0
3035,2025-03-07 11:11:43.954,402.0
3036,2025-03-07 11:11:44.004,557.0
3037,2025-03-07 11:11:44.054,538.0
3038,2025-03-07 11:11:44.105,365.0
3039,2025-03-07 11:11:44.155,528.0
3040,2025-03-07 11:11:44.205,529.0
3041,2025-03-07 11:11:44.256,514.0
3042,2025-03-07 11:11:44.306,421.0
3043,2025-03-07 11:11:44.356,524.0
3044,2025-03-07 11:11:44.406,525.0
3045,2025-03-07 11:11:44.456,515.0
3046,2025-03-07 11:11:44.507,527.0
3047,2025-03-07 11:11:44.557,532.0
3048,2025-03-07 11:11:44.608,543.0
3049,2025-03-07 11:11:44.658,539.0
3050,2025-03-07 11:11:44.708,492.0
3051,2025-03-07 11:11:44.758,536.0
3052,2025-03-07 11:11:44.809,533.0
3053,2025-03-07 11:11:44.859,532.0
3054,2025-03-07 11:11:44.909,533.0
3055,2025-03-07 11:11:44.960,515.0
3056,2025-03-07 11:11:45.010,527.0
3057,2025-03-07 11:11:45.060,544.0
3058,2025-03-07 11:11:45.110,418.0
3059,2025-03-07 11:11:45.161,545.0
3060,2025-03-07 11:11:45.211,537.0
3061,2025-03-07 11:11:45.261,543.0
3062,2025-03-07 11:11:45.312,508.0
3063,2025-03-07 11:11:45.362,519.0
3064,2025-03-07 11:11:45.412,529.0
3065,2025-03-07 11:11:45.462,504.0
3066,2025-03-07 11:11:45.513,535.0
3067,2025-03-07 11:11:45.563,516.0
3068,2025-03-07 11:11:45.613,535.0
3069,2025-03-07 11:11:45.663,517.0
3070,2025-03-07 11:11:45.714,512.0
3071,2025-03-07 11:11:45.764,562.0
3072,2025-03-07 11:11:45.814,578.0
3073,2025-03-07 11:11:45.864,558.0
3074,2025-03-07 11:11:45.915,483.0
3075,2025-03-07 11:11:45.965,527.0
3076,2025-03-07 11:11:46.015,529.0
3077,2025-03-07 11:11:46.066,544.0
3078,2025-03-07 11:11:46.116,526.0
3079,2025-03-07 11:11:46.166,550.0
3080,2025-03-07 11:11:46.216,383.0
3081,2025-03-07 11:11:46.267,463.0
3082,2025-03-07 11:11:46.317,537.0
3083,2025-03-07 11:11:46.367,536.0
3084,2025-03-07 11:11:46.418,549.0
3085,2025-03-07 11:11:46.468,499.0
3086,2025-03-07 11:11:46.518,465.0
3087,2025-03-07 11:11:46.569,500.0
3088,2025-03-07 11:11:46.619,525.0
3089,2025-03-07 11:11:46.669,417.0
3090,2025-03-07 11:11:46.719,528.0
3091,2025-03-07 11:11:46.770,519.0
3092,2025-03-07 11:11:46.820,522.0
3093,2025-03-07 11:11:46.870,520.0
3094,2025-03-07 11:11:46.921,527.0
3095,2025-03-07 11:11:46.971,389.0
3096,2025-03-07 11:11:47.021,548.0
3097,2025-03-07 11:11:47.071,527.0
3098,2025-03-07 11:11:47.122,479.0
3099,2025-03-07 11:11:47.172,536.0
3100,2025-03-07 11:11:47.222,481.0
3101,2025-03-07 11:11:47.273,545.0
3102,2025-03-07 11:11:47.323,554.0
3103,2025-03-07 11:11:47.373,551.0
3104,2025-03-07 11:11:47.423,515.0
3105,2025-03-07 11:11:47.474,525.0
3106,2025-03-07 11:11:47.524,542.0
3107,2025-03-07 11:11:47.574,525.0
3108,2025-03-07 11:11:47.624,380.0
3109,2025-03-07 11:11:47.675,536.0
3110,2025-03-07 11:11:47.725,541.0
3111,2025-03-07 11:11:47.775,550.0
3112,2025-03-07 11:11:47.826,533.0
3113,2025-03-07 11:11:47.876,504.0
3114,2025-03-07 11:11:47.926,549.0
3115,2025-03-07 11:11:47.976,539.0
3116,2025-03-07 11:11:48.027,586.0
3117,2025-03-07 11:11:48.077,552.0
3118,2025-03-07 11:11:48.127,534.0
3119,2025-03-07 11:11:48.177,532.0
3120,2025-03-07 11:11:48.228,543.0
3121,2025-03-07 11:11:48.278,539.0
3122,2025-03-07 11:11:48.328,439.0
3123,2025-03-07 11:11:48.379,502.0
3124,2025-03-07 11:11:48.429,540.0
3125,2025-03-07 11:11:48.479,532.0
3126,2025-03-07 11:11:48.530,370.0
3127,2025-03-07 11:11:48.580,536.0
3128,2025-03-07 11:11:48.630,544.0
3129,2025-03-07 11:11:48.680,525.0
3130,2025-03-07 11:11:48.731,413.0
3131,2025-03-07 11:11:48.781,536.0
3132,2025-03-07 11:11:48.831,535.0
3133,2025-03-07 11:11:48.881,523.0
3134,2025-03-07 11:11:48.932,540.0
3135,2025-03-07 11:11:48.982,536.0
3136,2025-03-07 11:11:49.032,539.0
3137,2025-03-07 11:11:49.083,541.0
3138,2025-03-07 11:11:49.133,542.0
3139,2025-03-07 11:11:49.183,551.0
3140,2025-03-07 11:11:49.233,531.0
3141,2025-03-07 11:11:49.284,399.0
3142,2025-03-07 11:11:49.334,535.0
3143,2025-03-07 11:11:49.384,538.0
3144,2025-03-07 11:11:49.435,546.0
3145,2025-03-07 11:11:49.485,553.0
3146,2025-03-07 11:11:49.535,444.0
3147,2025-03-07 11:11:49.585,506.0
3148,2025-03-07 11:11:49.636,529.0
3149,2025-03-07 11:11:49.686,436.0
3150,2025-03-07 11:11:49.736,498.0
3151,2025-03-07 11:11:49.787,541.0
3152,2025-03-07 11:11:49.837,557.0
3153,2025-03-07 11:11:49.887,538.0
3154,2025-03-07 11:11:49.938,468.0
3155,2025-03-07 11:11:49.988,535.0
3156,2025-03-07 11:11:50.038,449.0
3157,2025-03-07 11:11:50.088,529.0
3158,2025-03-07 11:11:50.138,495.0
3159,2025-03-07 11:11:50.189,543.0
3160,2025-03-07 11:11:50.239,512.0
3161,2025-03-07 11:11:50.289,523.0
3162,2025-03-07 11:11:50.340,504.0
3163,2025-03-07 11:11:50.390,539.0
3164,2025-03-07 11:11:50.440,555.0
3165,2025-03-07 11:11:50.490,431.0
3166,2025-03-07 11:11:50.541,520.0
3167,2025-03-07 11:11:50.591,496.0
3168,2025-03-07 11:11:50.641,550.0
3169,2025-03-07 11:11:50.692,515.0
3170,2025-03-07 11:11:50.742,533.0
3171,2025-03-07 11:11:50.792,543.0
3172,2025-03-07 11:11:50.842,514.0
3173,2025-03-07 11:11:50.893,528.0
3174,2025-03-07 11:11:50.943,519.0
3175,2025-03-07 11:11:50.993,511.0
3176,2025-03-07 11:11:51.043,506.0
3177,2025-03-07 11:11:51.094,483.0
3178,2025-03-07 11:11:51.144,519.0
3179,2025-03-07 11:11:51.194,520.0
3180,2025-03-07 11:11:51.244,510.0
3181,2025-03-07 11:11:51.295,519.0
3182,2025-03-07 11:11:51.345,494.0
3183,2025-03-07 11:11:51.395,528.0
3184,2025-03-07 11:11:51.446,519.0
3185,2025-03-07 11:11:51.496,517.0
3186,2025-03-07 11:11:51.546,444.0
3187,2025-03-07 11:11:51.597,425.0
3188,2025-03-07 11:11:51.647,543.0
3189,2025-03-07 11:11:51.697,377.0
3190,2025-03-07 11:11:51.747,537.0
3191,2025-03-07 11:11:51.798,555.0
3192,2025-03-07 11:11:51.848,449.0
3193,2025-03-07 11:11:51.898,525.0
3194,2025-03-07 11:11:51.948,526.0
3195,2025-03-07 11:11:51.999,543.0
3196,2025-03-07 11:11:52.049,529.0
3197,2025-03-07 11:11:52.100,461.0
3198,2025-03-07 11:11:52.150,545.0
3199,2025-03-07 11:11:52.200,525.0
3200,2025-03-07 11:11:52.250,558.0
3201,2025-03-07 11:11:52.301,499.0
3202,2025-03-07 11:11:52.351,504.0
3203,2025-03-07 11:11:52.401,496.0
3204,2025-03-07 11:11:52.451,533.0
3205,2025-03-07 11:11:52.502,534.0
3206,2025-03-07 11:11:52.552,553.0
3207,2025-03-07 11:11:52.602,470.0
3208,2025-03-07 11:11:52.653,415.0
3209,2025-03-07 11:11:52.703,539.0
3210,2025-03-07 11:11:52.753,449.0
3211,2025-03-07 11:11:52.804,540.0
3212,2025-03-07 11:11:52.854,484.0
3213,2025-03-07 11:11:52.904,498.0
3214,2025-03-07 11:11:52.954,473.0
3215,2025-03-07 11:11:53.005,538.0
3216,2025-03-07 11:11:53.055,555.0
3217,2025-03-07 11:11:53.105,558.0
3218,2025-03-07 11:11:53.155,316.0
3219,2025-03-07 11:11:53.206,567.0
3220,2025-03-07 11:11:53.256,535.0
3221,2025-03-07 11:11:53.306,529.0
3222,2025-03-07 11:11:53.357,538.0
3223,2025-03-07 11:11:53.407,547.0
3224,2025-03-07 11:11:53.457,530.0
3225,2025-03-07 11:11:53.507,462.0
3226,2025-03-07 11:11:53.558,396.0
3227,2025-03-07 11:11:53.608,555.0
3228,2025-03-07 11:11:53.658,524.0
3229,2025-03-07 11:11:53.709,490.0
3230,2025-03-07 11:11:53.759,545.0
3231,2025-03-07 11:11:53.809,540.0
3232,2025-03-07 11:11:53.859,544.0
3233,2025-03-07 11:11:53.910,551.0
3234,2025-03-07 11:11:53.960,548.0
3235,2025-03-07 11:11:54.010,568.0
3236,2025-03-07 11:11:54.061,480.0
3237,2025-03-07 11:11:54.111,552.0
3238,2025-03-07 11:11:54.161,537.0
3239,2025-03-07 11:11:54.212,454.0
3240,2025-03-07 11:11:54.262,542.0
3241,2025-03-07 11:11:54.312,487.0
3242,2025-03-07 11:11:54.362,536.0
3243,2025-03-07 11:11:54.412,474.0
3244,2025-03-07 11:11:54.463,542.0
3245,2025-03-07 11:11:54.513,542.0
3246,2025-03-07 11:11:54.563,521.0
3247,2025-03-07 11:11:54.614,544.0
3248,2025-03-07 11:11:54.664,562.0
3249,2025-03-07 11:11:54.714,533.0
3250,2025-03-07 11:11:54.765,545.0
3251,2025-03-07 11:11:54.815,398.0
3252,2025-03-07 11:11:54.865,539.0
3253,2025-03-07 11:11:54.915,418.0
3254,2025-03-07 11:11:54.965,538.0
3255,2025-03-07 11:11:55.016,532.0
3256,2025-03-07 11:11:55.066,514.0
3257,2025-03-07 11:11:55.116,541.0
3258,2025-03-07 11:11:55.167,513.0
3259,2025-03-07 11:11:55.217,528.0
3260,2025-03-07 11:11:55.267,391.0
3261,2025-03-07 11:11:55.318,561.0
3262,2025-03-07 11:11:55.368,274.0
3263,2025-03-07 11:11:55.418,510.0
3264,2025-03-07 11:11:55.469,521.0
3265,2025-03-07 11:11:55.519,552.0
3266,2025-03-07 11:11:55.569,532.0
3267,2025-03-07 11:11:55.619,544.0
3268,2025-03-07 11:11:55.670,533.0
3269,2025-03-07 11:11:55.720,554.0
3270,2025-03-07 11:11:55.770,536.0
3271,2025-03-07 11:11:55.821,535.0
3272,2025-03-07 11:11:55.871,539.0
3273,2025-03-07 11:11:55.921,537.0
3274,2025-03-07 11:11:55.971,504.0
3275,2025-03-07 11:11:56.022,505.0
3276,2025-03-07 11:11:56.072,467.0
3277,2025-03-07 11:11:56.122,474.0
3278,2025-03-07 11:11:56.172,551.0
3279,2025-03-07 11:11:56.223,492.0
3280,2025-03-07 11:11:56.273,540.0
3281,2025-03-07 11:11:56.323,485.0
3282,2025-03-07 11:11:56.373,533.0
3283,2025-03-07 11:11:56.424,544.0
3284,2025-03-07 11:11:56.474,533.0
3285,2025-03-07 11:11:56.524,517.0
3286,2025-03-07 11:11:56.575,538.0
3287,2025-03-07 11:11:56.625,549.0
3288,2025-03-07 11:11:56.675,532.0
3289,2025-03-07 11:11:56.726,496.0
3290,2025-03-07 11:11:56.776,531.0
3291,2025-03-07 11:11:56.826,528.0
3292,2025-03-07 11:11:56.876,542.0
3293,2025-03-07 11:11:56.927,525.0
3294,2025-03-07 11:11:56.977,516.0
3295,2025-03-07 11:11:57.027,535.0
3296,2025-03-07 11:11:57.078,435.0
3297,2025-03-07 11:11:57.128,536.0
3298,2025-03-07 11:11:57.178,532.0
3299,2025-03-07 11:11:57.228,467.0
3300,2025-03-07 11:11:57.278,506.0
3301,2025-03-07 11:11:57.329,479.0
3302,2025-03-07 11:11:57.379,457.0
3303,2025-03-07 11:11:57.429,536.0
3304,2025-03-07 11:11:57.480,546.0
3305,2025-03-07 11:11:57.530,513.0
3306,2025-03-07 11:11:57.580,490.0
3307,2025-03-07 11:11:57.631,500.0
3308,2025-03-07 11:11:57.681,541.0
3309,2025-03-07 11:11:57.731,548.0
3310,2025-03-07 11:11:57.781,533.0
3311,2025-03-07 11:11:57.832,535.0
3312,2025-03-07 11:11:57.882,531.0
3313,2025-03-07 11:11:57.932,550.0
3314,2025-03-07 11:11:57.982,544.0
3315,2025-03-07 11:11:58.033,469.0
3316,2025-03-07 11:11:58.083,562.0
3317,2025-03-07 11:11:58.133,530.0
3318,2025-03-07 11:11:58.184,521.0
3319,2025-03-07 11:11:58.234,444.0
3320,2025-03-07 11:11:58.284,541.0
3321,2025-03-07 11:11:58.335,538.0
3322,2025-03-07 11:11:58.385,570.0
3323,2025-03-07 11:11:58.435,459.0
3324,2025-03-07 11:11:58.485,451.0
3325,2025-03-07 11:11:58.536,530.0
3326,2025-03-07 11:11:58.586,559.0
3327,2025-03-07 11:11:58.636,548.0
3328,2025-03-07 11:11:58.686,537.0
3329,2025-03-07 11:11:58.737,514.0
3330,2025-03-07 11:11:58.787,531.0
3331,2025-03-07 11:11:58.837,556.0
3332,2025-03-07 11:11:58.888,523.0
3333,2025-03-07 11:11:58.938,529.0
3334,2025-03-07 11:11:58.988,523.0
3335,2025-03-07 11:11:59.039,530.0
3336,2025-03-07 11:11:59.089,529.0
3337,2025-03-07 11:11:59.139,467.0
3338,2025-03-07 11:11:59.190,522.0
3339,2025-03-07 11:11:59.240,482.0
3340,2025-03-07 11:11:59.290,539.0
3341,2025-03-07 11:11:59.340,523.0
3342,2025-03-07 11:11:59.390,559.0
3343,2025-03-07 11:11:59.441,540.0
3344,2025-03-07 11:11:59.491,357.0
3345,2025-03-07 11:11:59.541,444.0
3346,2025-03-07 11:11:59.592,526.0
3347,2025-03-07 11:11:59.642,493.0
3348,2025-03-07 11:11:59.692,538.0
3349,2025-03-07 11:11:59.742,532.0
3350,2025-03-07 11:11:59.793,513.0
3351,2025-03-07 11:11:59.843,523.0
3352,2025-03-07 11:11:59.893,540.0
3353,2025-03-07 11:11:59.943,478.0
3354,2025-03-07 11:11:59.994,543.0
3355,2025-03-07 11:12:00.044,541.0
3356,2025-03-07 11:12:00.094,519.0
3357,2025-03-07 11:12:00.145,555.0
3358,2025-03-07 11:12:00.195,549.0
3359,2025-03-07 11:12:00.245,523.0
3360,2025-03-07 11:12:00.295,541.0
3361,2025-03-07 11:12:00.346,547.0
3362,2025-03-07 11:12:00.396,506.0
3363,2025-03-07 11:12:00.446,534.0
3364,2025-03-07 11:12:00.496,559.0
3365,2025-03-07 11:12:00.547,520.0
3366,2025-03-07 11:12:00.597,505.0
3367,2025-03-07 11:12:00.647,545.0
3368,2025-03-07 11:12:00.698,529.0
3369,2025-03-07 11:12:00.748,412.0
3370,2025-03-07 11:12:00.798,576.0
3371,2025-03-07 11:12:00.849,375.0
3372,2025-03-07 11:12:00.899,577.0
3373,2025-03-07 11:12:00.949,516.0
3374,2025-03-07 11:12:00.999,537.0
3375,2025-03-07 11:12:01.050,452.0
3376,2025-03-07 11:12:01.100,463.0
3377,2025-03-07 11:12:01.150,554.0
3378,2025-03-07 11:12:01.201,486.0
3379,2025-03-07 11:12:01.251,473.0
3380,2025-03-07 11:12:01.301,567.0
3381,2025-03-07 11:12:01.351,540.0
3382,2025-03-07 11:12:01.402,537.0
3383,2025-03-07 11:12:01.452,491.0
3384,2025-03-07 11:12:01.502,446.0
3385,2025-03-07 11:12:01.553,472.0
3386,2025-03-07 11:12:01.603,391.0
3387,2025-03-07 11:12:01.653,507.0
3388,2025-03-07 11:12:01.704,466.0
3389,2025-03-07 11:12:01.754,485.0
3390,2025-03-07 11:12:01.804,542.0
3391,2025-03-07 11:12:01.854,544.0
3392,2025-03-07 11:12:01.905,518.0
3393,2025-03-07 11:12:01.955,544.0
3394,2025-03-07 11:12:02.005,544.0
3395,2025-03-07 11:12:02.055,533.0
3396,2025-03-07 11:12:02.106,545.0
3397,2025-03-07 11:12:02.156,537.0
3398,2025-03-07 11:12:02.206,438.0
3399,2025-03-07 11:12:02.257,507.0
3400,2025-03-07 11:12:02.307,532.0
3401,2025-03-07 11:12:02.357,520.0
3402,2025-03-07 11:12:02.407,521.0
3403,2025-03-07 11:12:02.458,510.0
3404,2025-03-07 11:12:02.508,526.0
3405,2025-03-07 11:12:02.558,507.0
3406,2025-03-07 11:12:02.609,509.0
3407,2025-03-07 11:12:02.659,498.0
3408,2025-03-07 11:12:02.709,533.0
3409,2025-03-07 11:12:02.759,549.0
3410,2025-03-07 11:12:02.810,535.0
3411,2025-03-07 11:12:02.860,531.0
3412,2025-03-07 11:12:02.910,510.0
3413,2025-03-07 11:12:02.960,531.0
3414,2025-03-07 11:12:03.011,502.0
3415,2025-03-07 11:12:03.061,388.0
3416,2025-03-07 11:12:03.111,502.0
3417,2025-03-07 11:12:03.162,523.0
3418,2025-03-07 11:12:03.212,560.0
3419,2025-03-07 11:12:03.262,417.0
3420,2025-03-07 11:12:03.313,550.0
3421,2025-03-07 11:12:03.363,544.0
3422,2025-03-07 11:12:03.413,504.0
3423,2025-03-07 11:12:03.463,539.0
3424,2025-03-07 11:12:03.514,461.0
3425,2025-03-07 11:12:03.564,524.0
3426,2025-03-07 11:12:03.614,522.0
3427,2025-03-07 11:12:03.664,523.0
3428,2025-03-07 11:12:03.715,537.0
