Sample_ID,Timestamp,EMG_Raw
0,2025-03-07 11:04:03.715,499.0
1,2025-03-07 11:04:03.765,532.0
2,2025-03-07 11:04:03.816,521.0
3,2025-03-07 11:04:03.866,528.0
4,2025-03-07 11:04:03.916,511.0
5,2025-03-07 11:04:03.967,537.0
6,2025-03-07 11:04:04.017,514.0
7,2025-03-07 11:04:04.067,529.0
8,2025-03-07 11:04:04.117,526.0
9,2025-03-07 11:04:04.168,534.0
10,2025-03-07 11:04:04.218,340.0
11,2025-03-07 11:04:04.268,536.0
12,2025-03-07 11:04:04.319,513.0
13,2025-03-07 11:04:04.369,512.0
14,2025-03-07 11:04:04.419,521.0
15,2025-03-07 11:04:04.470,515.0
16,2025-03-07 11:04:04.520,529.0
17,2025-03-07 11:04:04.570,536.0
18,2025-03-07 11:04:04.620,537.0
19,2025-03-07 11:04:04.670,504.0
20,2025-03-07 11:04:04.721,524.0
21,2025-03-07 11:04:04.771,520.0
22,2025-03-07 11:04:04.821,453.0
23,2025-03-07 11:04:04.872,506.0
24,2025-03-07 11:04:04.922,519.0
25,2025-03-07 11:04:04.972,502.0
26,2025-03-07 11:04:05.023,526.0
27,2025-03-07 11:04:05.073,527.0
28,2025-03-07 11:04:05.123,426.0
29,2025-03-07 11:04:05.173,533.0
30,2025-03-07 11:04:05.224,536.0
31,2025-03-07 11:04:05.274,515.0
32,2025-03-07 11:04:05.324,533.0
33,2025-03-07 11:04:05.374,528.0
34,2025-03-07 11:04:05.425,492.0
35,2025-03-07 11:04:05.475,528.0
36,2025-03-07 11:04:05.526,530.0
37,2025-03-07 11:04:05.575,424.0
38,2025-03-07 11:04:05.626,523.0
39,2025-03-07 11:04:05.676,526.0
40,2025-03-07 11:04:05.726,535.0
41,2025-03-07 11:04:05.777,498.0
42,2025-03-07 11:04:05.827,505.0
43,2025-03-07 11:04:05.877,535.0
44,2025-03-07 11:04:05.928,542.0
45,2025-03-07 11:04:05.978,466.0
46,2025-03-07 11:04:06.028,455.0
47,2025-03-07 11:04:06.078,518.0
48,2025-03-07 11:04:06.129,534.0
49,2025-03-07 11:04:06.179,520.0
50,2025-03-07 11:04:06.229,533.0
51,2025-03-07 11:04:06.280,548.0
52,2025-03-07 11:04:06.330,536.0
53,2025-03-07 11:04:06.380,523.0
54,2025-03-07 11:04:06.430,513.0
55,2025-03-07 11:04:06.481,454.0
56,2025-03-07 11:04:06.531,546.0
57,2025-03-07 11:04:06.581,527.0
58,2025-03-07 11:04:06.632,520.0
59,2025-03-07 11:04:06.682,544.0
60,2025-03-07 11:04:06.732,307.0
61,2025-03-07 11:04:06.782,538.0
62,2025-03-07 11:04:06.833,531.0
63,2025-03-07 11:04:06.883,526.0
64,2025-03-07 11:04:06.933,524.0
65,2025-03-07 11:04:06.983,538.0
66,2025-03-07 11:04:07.034,532.0
67,2025-03-07 11:04:07.084,520.0
68,2025-03-07 11:04:07.134,517.0
69,2025-03-07 11:04:07.185,519.0
70,2025-03-07 11:04:07.235,523.0
71,2025-03-07 11:04:07.285,508.0
72,2025-03-07 11:04:07.336,541.0
73,2025-03-07 11:04:07.386,532.0
74,2025-03-07 11:04:07.436,540.0
75,2025-03-07 11:04:07.486,519.0
76,2025-03-07 11:04:07.537,508.0
77,2025-03-07 11:04:07.587,520.0
78,2025-03-07 11:04:07.637,537.0
79,2025-03-07 11:04:07.688,536.0
80,2025-03-07 11:04:07.737,522.0
81,2025-03-07 11:04:07.788,527.0
82,2025-03-07 11:04:07.838,437.0
83,2025-03-07 11:04:07.889,516.0
84,2025-03-07 11:04:07.939,512.0
85,2025-03-07 11:04:07.989,531.0
86,2025-03-07 11:04:08.039,531.0
87,2025-03-07 11:04:08.090,522.0
88,2025-03-07 11:04:08.140,527.0
89,2025-03-07 11:04:08.190,529.0
90,2025-03-07 11:04:08.241,520.0
91,2025-03-07 11:04:08.291,456.0
92,2025-03-07 11:04:08.341,507.0
93,2025-03-07 11:04:08.391,524.0
94,2025-03-07 11:04:08.442,535.0
95,2025-03-07 11:04:08.492,524.0
96,2025-03-07 11:04:08.542,508.0
97,2025-03-07 11:04:08.593,529.0
98,2025-03-07 11:04:08.643,522.0
99,2025-03-07 11:04:08.693,534.0
100,2025-03-07 11:04:08.743,502.0
101,2025-03-07 11:04:08.794,547.0
102,2025-03-07 11:04:08.844,526.0
103,2025-03-07 11:04:08.894,529.0
104,2025-03-07 11:04:08.944,527.0
105,2025-03-07 11:04:08.995,372.0
106,2025-03-07 11:04:09.045,525.0
107,2025-03-07 11:04:09.096,523.0
108,2025-03-07 11:04:09.146,527.0
109,2025-03-07 11:04:09.196,518.0
110,2025-03-07 11:04:09.246,522.0
111,2025-03-07 11:04:09.296,480.0
112,2025-03-07 11:04:09.347,383.0
113,2025-03-07 11:04:09.397,416.0
114,2025-03-07 11:04:09.447,540.0
115,2025-03-07 11:04:09.498,526.0
116,2025-03-07 11:04:09.548,534.0
117,2025-03-07 11:04:09.598,544.0
118,2025-03-07 11:04:09.649,526.0
119,2025-03-07 11:04:09.699,434.0
120,2025-03-07 11:04:09.749,537.0
121,2025-03-07 11:04:09.799,514.0
122,2025-03-07 11:04:09.850,513.0
123,2025-03-07 11:04:09.900,523.0
124,2025-03-07 11:04:09.950,483.0
125,2025-03-07 11:04:10.000,500.0
126,2025-03-07 11:04:10.051,525.0
127,2025-03-07 11:04:10.101,533.0
128,2025-03-07 11:04:10.151,524.0
129,2025-03-07 11:04:10.201,541.0
130,2025-03-07 11:04:10.251,541.0
131,2025-03-07 11:04:10.302,535.0
132,2025-03-07 11:04:10.352,444.0
133,2025-03-07 11:04:10.403,525.0
134,2025-03-07 11:04:10.453,530.0
135,2025-03-07 11:04:10.503,484.0
136,2025-03-07 11:04:10.553,524.0
137,2025-03-07 11:04:10.604,456.0
138,2025-03-07 11:04:10.654,522.0
139,2025-03-07 11:04:10.704,538.0
140,2025-03-07 11:04:10.755,533.0
141,2025-03-07 11:04:10.805,522.0
142,2025-03-07 11:04:10.855,477.0
143,2025-03-07 11:04:10.905,536.0
144,2025-03-07 11:04:10.956,509.0
145,2025-03-07 11:04:11.006,536.0
146,2025-03-07 11:04:11.056,489.0
147,2025-03-07 11:04:11.106,527.0
148,2025-03-07 11:04:11.157,461.0
149,2025-03-07 11:04:11.207,542.0
150,2025-03-07 11:04:11.257,547.0
151,2025-03-07 11:04:11.308,449.0
152,2025-03-07 11:04:11.358,435.0
153,2025-03-07 11:04:11.408,437.0
154,2025-03-07 11:04:11.459,534.0
155,2025-03-07 11:04:11.509,461.0
156,2025-03-07 11:04:11.559,459.0
157,2025-03-07 11:04:11.609,531.0
158,2025-03-07 11:04:11.660,520.0
159,2025-03-07 11:04:11.710,530.0
160,2025-03-07 11:04:11.760,470.0
161,2025-03-07 11:04:11.810,525.0
162,2025-03-07 11:04:11.861,530.0
163,2025-03-07 11:04:11.911,545.0
164,2025-03-07 11:04:11.961,510.0
165,2025-03-07 11:04:12.011,479.0
166,2025-03-07 11:04:12.062,528.0
167,2025-03-07 11:04:12.112,527.0
168,2025-03-07 11:04:12.162,526.0
169,2025-03-07 11:04:12.213,491.0
170,2025-03-07 11:04:12.263,516.0
171,2025-03-07 11:04:12.313,523.0
172,2025-03-07 11:04:12.364,528.0
173,2025-03-07 11:04:12.414,334.0
174,2025-03-07 11:04:12.464,479.0
175,2025-03-07 11:04:12.515,543.0
176,2025-03-07 11:04:12.565,551.0
177,2025-03-07 11:04:12.615,536.0
178,2025-03-07 11:04:12.665,532.0
179,2025-03-07 11:04:12.716,528.0
180,2025-03-07 11:04:12.766,465.0
181,2025-03-07 11:04:12.816,525.0
182,2025-03-07 11:04:12.866,484.0
183,2025-03-07 11:04:12.917,496.0
184,2025-03-07 11:04:12.967,538.0
185,2025-03-07 11:04:13.017,497.0
186,2025-03-07 11:04:13.067,539.0
187,2025-03-07 11:04:13.118,507.0
188,2025-03-07 11:04:13.168,524.0
189,2025-03-07 11:04:13.219,529.0
190,2025-03-07 11:04:13.269,527.0
191,2025-03-07 11:04:13.319,533.0
192,2025-03-07 11:04:13.369,543.0
193,2025-03-07 11:04:13.420,520.0
194,2025-03-07 11:04:13.470,532.0
195,2025-03-07 11:04:13.520,491.0
196,2025-03-07 11:04:13.570,540.0
197,2025-03-07 11:04:13.620,540.0
198,2025-03-07 11:04:13.671,536.0
199,2025-03-07 11:04:13.721,524.0
200,2025-03-07 11:04:13.771,528.0
201,2025-03-07 11:04:13.822,487.0
202,2025-03-07 11:04:13.872,535.0
203,2025-03-07 11:04:13.922,505.0
204,2025-03-07 11:04:13.973,532.0
205,2025-03-07 11:04:14.023,494.0
206,2025-03-07 11:04:14.073,542.0
207,2025-03-07 11:04:14.123,525.0
208,2025-03-07 11:04:14.174,540.0
209,2025-03-07 11:04:14.224,523.0
210,2025-03-07 11:04:14.274,362.0
211,2025-03-07 11:04:14.325,533.0
212,2025-03-07 11:04:14.375,509.0
213,2025-03-07 11:04:14.425,526.0
214,2025-03-07 11:04:14.476,505.0
215,2025-03-07 11:04:14.526,523.0
216,2025-03-07 11:04:14.576,523.0
217,2025-03-07 11:04:14.626,524.0
218,2025-03-07 11:04:14.677,526.0
219,2025-03-07 11:04:14.727,526.0
220,2025-03-07 11:04:14.777,501.0
221,2025-03-07 11:04:14.827,466.0
222,2025-03-07 11:04:14.878,538.0
223,2025-03-07 11:04:14.928,522.0
224,2025-03-07 11:04:14.978,470.0
225,2025-03-07 11:04:15.029,538.0
226,2025-03-07 11:04:15.079,439.0
227,2025-03-07 11:04:15.129,520.0
228,2025-03-07 11:04:15.179,476.0
229,2025-03-07 11:04:15.230,531.0
230,2025-03-07 11:04:15.280,522.0
231,2025-03-07 11:04:15.330,526.0
232,2025-03-07 11:04:15.381,542.0
233,2025-03-07 11:04:15.431,404.0
234,2025-03-07 11:04:15.481,526.0
235,2025-03-07 11:04:15.531,515.0
236,2025-03-07 11:04:15.582,516.0
237,2025-03-07 11:04:15.632,489.0
238,2025-03-07 11:04:15.682,452.0
239,2025-03-07 11:04:15.733,524.0
240,2025-03-07 11:04:15.783,513.0
241,2025-03-07 11:04:15.833,533.0
242,2025-03-07 11:04:15.883,524.0
243,2025-03-07 11:04:15.934,543.0
244,2025-03-07 11:04:15.984,526.0
245,2025-03-07 11:04:16.034,524.0
246,2025-03-07 11:04:16.084,442.0
247,2025-03-07 11:04:16.135,362.0
248,2025-03-07 11:04:16.185,541.0
249,2025-03-07 11:04:16.235,529.0
250,2025-03-07 11:04:16.285,524.0
251,2025-03-07 11:04:16.336,528.0
252,2025-03-07 11:04:16.386,539.0
253,2025-03-07 11:04:16.436,532.0
254,2025-03-07 11:04:16.487,540.0
255,2025-03-07 11:04:16.537,538.0
256,2025-03-07 11:04:16.587,534.0
257,2025-03-07 11:04:16.638,516.0
258,2025-03-07 11:04:16.688,539.0
259,2025-03-07 11:04:16.738,528.0
260,2025-03-07 11:04:16.788,364.0
261,2025-03-07 11:04:16.839,424.0
262,2025-03-07 11:04:16.889,534.0
263,2025-03-07 11:04:16.939,547.0
264,2025-03-07 11:04:16.990,478.0
265,2025-03-07 11:04:17.040,534.0
266,2025-03-07 11:04:17.090,500.0
267,2025-03-07 11:04:17.140,534.0
268,2025-03-07 11:04:17.191,552.0
269,2025-03-07 11:04:17.241,527.0
270,2025-03-07 11:04:17.291,523.0
271,2025-03-07 11:04:17.342,554.0
272,2025-03-07 11:04:17.392,484.0
273,2025-03-07 11:04:17.442,554.0
274,2025-03-07 11:04:17.492,450.0
275,2025-03-07 11:04:17.543,543.0
276,2025-03-07 11:04:17.593,528.0
277,2025-03-07 11:04:17.643,505.0
278,2025-03-07 11:04:17.694,534.0
279,2025-03-07 11:04:17.744,536.0
280,2025-03-07 11:04:17.794,504.0
281,2025-03-07 11:04:17.844,460.0
282,2025-03-07 11:04:17.895,523.0
283,2025-03-07 11:04:17.945,497.0
284,2025-03-07 11:04:17.995,496.0
285,2025-03-07 11:04:18.046,524.0
286,2025-03-07 11:04:18.096,532.0
287,2025-03-07 11:04:18.146,534.0
288,2025-03-07 11:04:18.197,519.0
289,2025-03-07 11:04:18.247,494.0
290,2025-03-07 11:04:18.297,533.0
291,2025-03-07 11:04:18.347,391.0
292,2025-03-07 11:04:18.397,535.0
293,2025-03-07 11:04:18.448,547.0
294,2025-03-07 11:04:18.498,528.0
295,2025-03-07 11:04:18.548,496.0
296,2025-03-07 11:04:18.599,546.0
297,2025-03-07 11:04:18.649,499.0
298,2025-03-07 11:04:18.699,535.0
299,2025-03-07 11:04:18.749,496.0
300,2025-03-07 11:04:18.800,514.0
301,2025-03-07 11:04:18.850,462.0
302,2025-03-07 11:04:18.900,507.0
303,2025-03-07 11:04:18.950,548.0
304,2025-03-07 11:04:19.001,531.0
305,2025-03-07 11:04:19.051,539.0
306,2025-03-07 11:04:19.101,450.0
307,2025-03-07 11:04:19.152,545.0
308,2025-03-07 11:04:19.202,490.0
309,2025-03-07 11:04:19.252,507.0
310,2025-03-07 11:04:19.303,511.0
311,2025-03-07 11:04:19.353,511.0
312,2025-03-07 11:04:19.403,503.0
313,2025-03-07 11:04:19.453,509.0
314,2025-03-07 11:04:19.503,518.0
315,2025-03-07 11:04:19.554,519.0
316,2025-03-07 11:04:19.604,504.0
317,2025-03-07 11:04:19.654,489.0
318,2025-03-07 11:04:19.705,515.0
319,2025-03-07 11:04:19.755,511.0
320,2025-03-07 11:04:19.805,521.0
321,2025-03-07 11:04:19.855,517.0
322,2025-03-07 11:04:19.906,512.0
323,2025-03-07 11:04:19.956,521.0
324,2025-03-07 11:04:20.006,521.0
325,2025-03-07 11:04:20.057,545.0
326,2025-03-07 11:04:20.107,498.0
327,2025-03-07 11:04:20.157,384.0
328,2025-03-07 11:04:20.208,547.0
329,2025-03-07 11:04:20.258,528.0
330,2025-03-07 11:04:20.308,545.0
331,2025-03-07 11:04:20.358,547.0
332,2025-03-07 11:04:20.409,522.0
333,2025-03-07 11:04:20.459,523.0
334,2025-03-07 11:04:20.509,448.0
335,2025-03-07 11:04:20.560,563.0
336,2025-03-07 11:04:20.610,584.0
337,2025-03-07 11:04:20.660,342.0
338,2025-03-07 11:04:20.711,346.0
339,2025-03-07 11:04:20.761,565.0
340,2025-03-07 11:04:20.811,528.0
341,2025-03-07 11:04:20.861,471.0
342,2025-03-07 11:04:20.912,541.0
343,2025-03-07 11:04:20.962,499.0
344,2025-03-07 11:04:21.012,537.0
345,2025-03-07 11:04:21.063,545.0
346,2025-03-07 11:04:21.113,552.0
347,2025-03-07 11:04:21.163,541.0
348,2025-03-07 11:04:21.213,343.0
349,2025-03-07 11:04:21.264,502.0
350,2025-03-07 11:04:21.314,533.0
351,2025-03-07 11:04:21.364,548.0
352,2025-03-07 11:04:21.414,529.0
353,2025-03-07 11:04:21.465,495.0
354,2025-03-07 11:04:21.515,419.0
355,2025-03-07 11:04:21.565,518.0
356,2025-03-07 11:04:21.616,472.0
357,2025-03-07 11:04:21.666,500.0
358,2025-03-07 11:04:21.716,281.0
359,2025-03-07 11:04:21.766,543.0
360,2025-03-07 11:04:21.817,532.0
361,2025-03-07 11:04:21.867,535.0
362,2025-03-07 11:04:21.917,514.0
363,2025-03-07 11:04:21.968,536.0
364,2025-03-07 11:04:22.018,532.0
365,2025-03-07 11:04:22.068,477.0
366,2025-03-07 11:04:22.118,518.0
367,2025-03-07 11:04:22.169,501.0
368,2025-03-07 11:04:22.219,556.0
369,2025-03-07 11:04:22.269,286.0
370,2025-03-07 11:04:22.320,548.0
371,2025-03-07 11:04:22.370,567.0
372,2025-03-07 11:04:22.420,550.0
373,2025-03-07 11:04:22.470,542.0
374,2025-03-07 11:04:22.521,404.0
375,2025-03-07 11:04:22.571,437.0
376,2025-03-07 11:04:22.621,548.0
377,2025-03-07 11:04:22.671,337.0
378,2025-03-07 11:04:22.722,505.0
379,2025-03-07 11:04:22.772,544.0
380,2025-03-07 11:04:22.822,453.0
381,2025-03-07 11:04:22.873,535.0
382,2025-03-07 11:04:22.923,493.0
383,2025-03-07 11:04:22.973,540.0
384,2025-03-07 11:04:23.023,507.0
385,2025-03-07 11:04:23.074,466.0
386,2025-03-07 11:04:23.124,523.0
387,2025-03-07 11:04:23.174,536.0
388,2025-03-07 11:04:23.225,539.0
389,2025-03-07 11:04:23.275,546.0
390,2025-03-07 11:04:23.325,355.0
391,2025-03-07 11:04:23.375,513.0
392,2025-03-07 11:04:23.426,358.0
393,2025-03-07 11:04:23.476,538.0
394,2025-03-07 11:04:23.526,458.0
395,2025-03-07 11:04:23.576,472.0
396,2025-03-07 11:04:23.627,502.0
397,2025-03-07 11:04:23.677,533.0
398,2025-03-07 11:04:23.727,534.0
399,2025-03-07 11:04:23.778,538.0
400,2025-03-07 11:04:23.828,514.0
401,2025-03-07 11:04:23.878,601.0
402,2025-03-07 11:04:23.929,548.0
403,2025-03-07 11:04:23.979,524.0
404,2025-03-07 11:04:24.029,546.0
405,2025-03-07 11:04:24.079,540.0
406,2025-03-07 11:04:24.130,540.0
407,2025-03-07 11:04:24.180,557.0
408,2025-03-07 11:04:24.230,397.0
409,2025-03-07 11:04:24.281,555.0
410,2025-03-07 11:04:24.331,547.0
411,2025-03-07 11:04:24.381,518.0
412,2025-03-07 11:04:24.431,488.0
413,2025-03-07 11:04:24.482,483.0
414,2025-03-07 11:04:24.532,341.0
415,2025-03-07 11:04:24.582,538.0
416,2025-03-07 11:04:24.633,554.0
417,2025-03-07 11:04:24.683,492.0
418,2025-03-07 11:04:24.733,556.0
419,2025-03-07 11:04:24.783,528.0
420,2025-03-07 11:04:24.834,506.0
421,2025-03-07 11:04:24.884,440.0
422,2025-03-07 11:04:24.934,549.0
423,2025-03-07 11:04:24.984,548.0
424,2025-03-07 11:04:25.035,543.0
425,2025-03-07 11:04:25.085,561.0
426,2025-03-07 11:04:25.135,524.0
427,2025-03-07 11:04:25.185,476.0
428,2025-03-07 11:04:25.236,510.0
429,2025-03-07 11:04:25.286,545.0
430,2025-03-07 11:04:25.336,524.0
431,2025-03-07 11:04:25.387,511.0
432,2025-03-07 11:04:25.437,510.0
433,2025-03-07 11:04:25.487,511.0
434,2025-03-07 11:04:25.537,511.0
435,2025-03-07 11:04:25.588,509.0
436,2025-03-07 11:04:25.638,514.0
437,2025-03-07 11:04:25.688,516.0
438,2025-03-07 11:04:25.739,523.0
439,2025-03-07 11:04:25.789,515.0
440,2025-03-07 11:04:25.839,525.0
441,2025-03-07 11:04:25.890,519.0
442,2025-03-07 11:04:25.940,408.0
443,2025-03-07 11:04:25.990,506.0
444,2025-03-07 11:04:26.041,470.0
445,2025-03-07 11:04:26.091,473.0
446,2025-03-07 11:04:26.141,552.0
447,2025-03-07 11:04:26.191,479.0
448,2025-03-07 11:04:26.242,559.0
449,2025-03-07 11:04:26.292,475.0
450,2025-03-07 11:04:26.342,482.0
451,2025-03-07 11:04:26.392,570.0
452,2025-03-07 11:04:26.443,459.0
453,2025-03-07 11:04:26.493,537.0
454,2025-03-07 11:04:26.543,534.0
455,2025-03-07 11:04:26.594,556.0
456,2025-03-07 11:04:26.644,408.0
457,2025-03-07 11:04:26.694,588.0
458,2025-03-07 11:04:26.744,566.0
459,2025-03-07 11:04:26.795,456.0
460,2025-03-07 11:04:26.845,578.0
461,2025-03-07 11:04:26.895,542.0
462,2025-03-07 11:04:26.946,553.0
463,2025-03-07 11:04:26.996,555.0
464,2025-03-07 11:04:27.046,551.0
465,2025-03-07 11:04:27.096,536.0
466,2025-03-07 11:04:27.147,483.0
467,2025-03-07 11:04:27.197,507.0
468,2025-03-07 11:04:27.247,515.0
469,2025-03-07 11:04:27.297,543.0
470,2025-03-07 11:04:27.348,544.0
471,2025-03-07 11:04:27.398,550.0
472,2025-03-07 11:04:27.448,536.0
473,2025-03-07 11:04:27.499,541.0
474,2025-03-07 11:04:27.549,577.0
475,2025-03-07 11:04:27.599,535.0
476,2025-03-07 11:04:27.649,495.0
477,2025-03-07 11:04:27.700,514.0
478,2025-03-07 11:04:27.750,539.0
479,2025-03-07 11:04:27.800,529.0
480,2025-03-07 11:04:27.850,556.0
481,2025-03-07 11:04:27.901,512.0
482,2025-03-07 11:04:27.951,565.0
483,2025-03-07 11:04:28.001,520.0
484,2025-03-07 11:04:28.052,530.0
485,2025-03-07 11:04:28.102,475.0
486,2025-03-07 11:04:28.152,513.0
487,2025-03-07 11:04:28.202,534.0
488,2025-03-07 11:04:28.253,476.0
489,2025-03-07 11:04:28.303,541.0
490,2025-03-07 11:04:28.353,386.0
491,2025-03-07 11:04:28.403,499.0
492,2025-03-07 11:04:28.454,543.0
493,2025-03-07 11:04:28.504,329.0
494,2025-03-07 11:04:28.554,345.0
495,2025-03-07 11:04:28.605,584.0
496,2025-03-07 11:04:28.655,536.0
497,2025-03-07 11:04:28.705,535.0
498,2025-03-07 11:04:28.755,414.0
499,2025-03-07 11:04:28.806,539.0
500,2025-03-07 11:04:28.856,462.0
501,2025-03-07 11:04:28.906,531.0
502,2025-03-07 11:04:28.957,532.0
503,2025-03-07 11:04:29.007,540.0
504,2025-03-07 11:04:29.057,512.0
505,2025-03-07 11:04:29.107,562.0
506,2025-03-07 11:04:29.158,536.0
507,2025-03-07 11:04:29.208,553.0
508,2025-03-07 11:04:29.258,482.0
509,2025-03-07 11:04:29.309,550.0
510,2025-03-07 11:04:29.359,534.0
511,2025-03-07 11:04:29.409,512.0
512,2025-03-07 11:04:29.460,515.0
513,2025-03-07 11:04:29.510,517.0
514,2025-03-07 11:04:29.560,537.0
515,2025-03-07 11:04:29.611,528.0
516,2025-03-07 11:04:29.661,535.0
517,2025-03-07 11:04:29.711,533.0
518,2025-03-07 11:04:29.761,477.0
519,2025-03-07 11:04:29.811,544.0
520,2025-03-07 11:04:29.862,556.0
521,2025-03-07 11:04:29.912,521.0
522,2025-03-07 11:04:29.962,286.0
523,2025-03-07 11:04:30.012,447.0
524,2025-03-07 11:04:30.063,553.0
525,2025-03-07 11:04:30.113,523.0
526,2025-03-07 11:04:30.163,542.0
527,2025-03-07 11:04:30.214,452.0
528,2025-03-07 11:04:30.264,550.0
529,2025-03-07 11:04:30.314,515.0
530,2025-03-07 11:04:30.365,491.0
531,2025-03-07 11:04:30.415,520.0
532,2025-03-07 11:04:30.465,353.0
533,2025-03-07 11:04:30.515,491.0
534,2025-03-07 11:04:30.566,547.0
535,2025-03-07 11:04:30.616,525.0
536,2025-03-07 11:04:30.666,530.0
537,2025-03-07 11:04:30.717,556.0
538,2025-03-07 11:04:30.767,439.0
539,2025-03-07 11:04:30.817,586.0
540,2025-03-07 11:04:30.867,416.0
541,2025-03-07 11:04:30.918,486.0
542,2025-03-07 11:04:30.968,533.0
543,2025-03-07 11:04:31.018,534.0
544,2025-03-07 11:04:31.068,553.0
545,2025-03-07 11:04:31.119,506.0
546,2025-03-07 11:04:31.169,518.0
547,2025-03-07 11:04:31.219,583.0
548,2025-03-07 11:04:31.270,535.0
549,2025-03-07 11:04:31.320,544.0
550,2025-03-07 11:04:31.370,552.0
551,2025-03-07 11:04:31.421,472.0
552,2025-03-07 11:04:31.471,466.0
553,2025-03-07 11:04:31.521,455.0
554,2025-03-07 11:04:31.571,499.0
555,2025-03-07 11:04:31.622,600.0
556,2025-03-07 11:04:31.672,409.0
557,2025-03-07 11:04:31.722,582.0
558,2025-03-07 11:04:31.773,566.0
559,2025-03-07 11:04:31.823,569.0
560,2025-03-07 11:04:31.873,604.0
561,2025-03-07 11:04:31.923,466.0
562,2025-03-07 11:04:31.974,319.0
563,2025-03-07 11:04:32.024,566.0
564,2025-03-07 11:04:32.074,424.0
565,2025-03-07 11:04:32.124,502.0
566,2025-03-07 11:04:32.175,439.0
567,2025-03-07 11:04:32.225,535.0
568,2025-03-07 11:04:32.275,518.0
569,2025-03-07 11:04:32.326,541.0
570,2025-03-07 11:04:32.376,547.0
571,2025-03-07 11:04:32.426,479.0
572,2025-03-07 11:04:32.477,537.0
573,2025-03-07 11:04:32.527,472.0
574,2025-03-07 11:04:32.577,543.0
575,2025-03-07 11:04:32.627,490.0
576,2025-03-07 11:04:32.677,562.0
577,2025-03-07 11:04:32.728,561.0
578,2025-03-07 11:04:32.778,537.0
579,2025-03-07 11:04:32.828,367.0
580,2025-03-07 11:04:32.879,519.0
581,2025-03-07 11:04:32.929,548.0
582,2025-03-07 11:04:32.979,485.0
583,2025-03-07 11:04:33.030,461.0
584,2025-03-07 11:04:33.080,528.0
585,2025-03-07 11:04:33.130,548.0
586,2025-03-07 11:04:33.181,552.0
587,2025-03-07 11:04:33.231,459.0
588,2025-03-07 11:04:33.281,559.0
589,2025-03-07 11:04:33.331,544.0
590,2025-03-07 11:04:33.382,556.0
591,2025-03-07 11:04:33.432,525.0
592,2025-03-07 11:04:33.482,446.0
593,2025-03-07 11:04:33.532,508.0
594,2025-03-07 11:04:33.583,527.0
595,2025-03-07 11:04:33.633,476.0
596,2025-03-07 11:04:33.683,451.0
597,2025-03-07 11:04:33.734,506.0
598,2025-03-07 11:04:33.784,511.0
599,2025-03-07 11:04:33.834,397.0
600,2025-03-07 11:04:33.884,472.0
601,2025-03-07 11:04:33.935,537.0
602,2025-03-07 11:04:33.985,490.0
603,2025-03-07 11:04:34.035,364.0
604,2025-03-07 11:04:34.085,554.0
605,2025-03-07 11:04:34.136,552.0
606,2025-03-07 11:04:34.186,548.0
607,2025-03-07 11:04:34.236,550.0
608,2025-03-07 11:04:34.287,379.0
609,2025-03-07 11:04:34.337,565.0
610,2025-03-07 11:04:34.387,427.0
611,2025-03-07 11:04:34.437,557.0
612,2025-03-07 11:04:34.488,376.0
613,2025-03-07 11:04:34.538,603.0
614,2025-03-07 11:04:34.588,549.0
615,2025-03-07 11:04:34.639,545.0
616,2025-03-07 11:04:34.689,539.0
617,2025-03-07 11:04:34.739,522.0
618,2025-03-07 11:04:34.790,553.0
619,2025-03-07 11:04:34.840,459.0
620,2025-03-07 11:04:34.890,547.0
621,2025-03-07 11:04:34.940,472.0
622,2025-03-07 11:04:34.991,471.0
623,2025-03-07 11:04:35.041,561.0
624,2025-03-07 11:04:35.091,542.0
625,2025-03-07 11:04:35.141,518.0
626,2025-03-07 11:04:35.192,526.0
627,2025-03-07 11:04:35.242,563.0
628,2025-03-07 11:04:35.292,570.0
629,2025-03-07 11:04:35.343,460.0
630,2025-03-07 11:04:35.393,581.0
631,2025-03-07 11:04:35.443,443.0
632,2025-03-07 11:04:35.493,493.0
633,2025-03-07 11:04:35.544,572.0
634,2025-03-07 11:04:35.594,616.0
635,2025-03-07 11:04:35.644,548.0
636,2025-03-07 11:04:35.694,572.0
637,2025-03-07 11:04:35.745,585.0
638,2025-03-07 11:04:35.795,589.0
639,2025-03-07 11:04:35.845,566.0
640,2025-03-07 11:04:35.896,592.0
641,2025-03-07 11:04:35.946,424.0
642,2025-03-07 11:04:35.996,514.0
643,2025-03-07 11:04:36.046,555.0
644,2025-03-07 11:04:36.097,339.0
645,2025-03-07 11:04:36.147,547.0
646,2025-03-07 11:04:36.197,537.0
647,2025-03-07 11:04:36.248,564.0
648,2025-03-07 11:04:36.298,459.0
649,2025-03-07 11:04:36.348,556.0
650,2025-03-07 11:04:36.398,546.0
651,2025-03-07 11:04:36.449,528.0
652,2025-03-07 11:04:36.499,546.0
653,2025-03-07 11:04:36.549,552.0
654,2025-03-07 11:04:36.599,535.0
655,2025-03-07 11:04:36.650,519.0
656,2025-03-07 11:04:36.700,510.0
657,2025-03-07 11:04:36.750,511.0
658,2025-03-07 11:04:36.800,511.0
659,2025-03-07 11:04:36.851,511.0
660,2025-03-07 11:04:36.901,511.0
661,2025-03-07 11:04:36.951,511.0
662,2025-03-07 11:04:37.002,511.0
663,2025-03-07 11:04:37.052,511.0
664,2025-03-07 11:04:37.102,511.0
665,2025-03-07 11:04:37.152,511.0
666,2025-03-07 11:04:37.203,511.0
667,2025-03-07 11:04:37.253,511.0
668,2025-03-07 11:04:37.303,511.0
669,2025-03-07 11:04:37.354,471.0
670,2025-03-07 11:04:37.404,541.0
671,2025-03-07 11:04:37.454,471.0
672,2025-03-07 11:04:37.505,522.0
673,2025-03-07 11:04:37.555,538.0
674,2025-03-07 11:04:37.605,530.0
675,2025-03-07 11:04:37.655,523.0
676,2025-03-07 11:04:37.706,450.0
677,2025-03-07 11:04:37.756,542.0
678,2025-03-07 11:04:37.806,575.0
679,2025-03-07 11:04:37.857,589.0
680,2025-03-07 11:04:37.907,517.0
681,2025-03-07 11:04:37.957,500.0
682,2025-03-07 11:04:38.007,569.0
683,2025-03-07 11:04:38.058,431.0
684,2025-03-07 11:04:38.108,580.0
685,2025-03-07 11:04:38.158,551.0
686,2025-03-07 11:04:38.209,515.0
687,2025-03-07 11:04:38.259,546.0
688,2025-03-07 11:04:38.309,528.0
689,2025-03-07 11:04:38.359,473.0
690,2025-03-07 11:04:38.410,538.0
691,2025-03-07 11:04:38.460,535.0
692,2025-03-07 11:04:38.510,494.0
693,2025-03-07 11:04:38.561,421.0
694,2025-03-07 11:04:38.611,515.0
695,2025-03-07 11:04:38.661,537.0
696,2025-03-07 11:04:38.711,540.0
697,2025-03-07 11:04:38.762,351.0
698,2025-03-07 11:04:38.812,527.0
699,2025-03-07 11:04:38.862,449.0
700,2025-03-07 11:04:38.913,528.0
701,2025-03-07 11:04:38.963,518.0
702,2025-03-07 11:04:39.013,531.0
703,2025-03-07 11:04:39.063,538.0
704,2025-03-07 11:04:39.113,529.0
705,2025-03-07 11:04:39.164,525.0
706,2025-03-07 11:04:39.214,539.0
707,2025-03-07 11:04:39.264,568.0
708,2025-03-07 11:04:39.315,480.0
709,2025-03-07 11:04:39.365,540.0
710,2025-03-07 11:04:39.415,559.0
711,2025-03-07 11:04:39.466,552.0
712,2025-03-07 11:04:39.516,472.0
713,2025-03-07 11:04:39.566,532.0
714,2025-03-07 11:04:39.616,568.0
715,2025-03-07 11:04:39.667,541.0
716,2025-03-07 11:04:39.717,340.0
717,2025-03-07 11:04:39.767,550.0
718,2025-03-07 11:04:39.817,540.0
719,2025-03-07 11:04:39.868,580.0
720,2025-03-07 11:04:39.918,300.0
721,2025-03-07 11:04:39.968,562.0
722,2025-03-07 11:04:40.019,612.0
723,2025-03-07 11:04:40.069,540.0
724,2025-03-07 11:04:40.119,572.0
725,2025-03-07 11:04:40.169,563.0
726,2025-03-07 11:04:40.220,485.0
727,2025-03-07 11:04:40.270,397.0
728,2025-03-07 11:04:40.320,533.0
729,2025-03-07 11:04:40.371,551.0
730,2025-03-07 11:04:40.421,475.0
731,2025-03-07 11:04:40.471,564.0
732,2025-03-07 11:04:40.521,510.0
733,2025-03-07 11:04:40.572,519.0
734,2025-03-07 11:04:40.622,434.0
735,2025-03-07 11:04:40.672,589.0
736,2025-03-07 11:04:40.723,632.0
737,2025-03-07 11:04:40.773,583.0
738,2025-03-07 11:04:40.823,545.0
739,2025-03-07 11:04:40.873,319.0
740,2025-03-07 11:04:40.924,399.0
741,2025-03-07 11:04:40.974,461.0
742,2025-03-07 11:04:41.025,539.0
743,2025-03-07 11:04:41.075,541.0
744,2025-03-07 11:04:41.125,600.0
745,2025-03-07 11:04:41.175,538.0
746,2025-03-07 11:04:41.225,433.0
747,2025-03-07 11:04:41.276,566.0
748,2025-03-07 11:04:41.326,556.0
749,2025-03-07 11:04:41.376,319.0
750,2025-03-07 11:04:41.427,365.0
751,2025-03-07 11:04:41.477,598.0
752,2025-03-07 11:04:41.527,506.0
753,2025-03-07 11:04:41.578,581.0
754,2025-03-07 11:04:41.628,413.0
755,2025-03-07 11:04:41.678,600.0
756,2025-03-07 11:04:41.728,595.0
757,2025-03-07 11:04:41.779,515.0
758,2025-03-07 11:04:41.829,406.0
759,2025-03-07 11:04:41.879,584.0
760,2025-03-07 11:04:41.929,526.0
761,2025-03-07 11:04:41.980,468.0
762,2025-03-07 11:04:42.030,346.0
763,2025-03-07 11:04:42.080,605.0
764,2025-03-07 11:04:42.131,553.0
765,2025-03-07 11:04:42.181,445.0
766,2025-03-07 11:04:42.231,583.0
767,2025-03-07 11:04:42.281,436.0
768,2025-03-07 11:04:42.332,478.0
769,2025-03-07 11:04:42.382,467.0
770,2025-03-07 11:04:42.432,597.0
771,2025-03-07 11:04:42.483,505.0
772,2025-03-07 11:04:42.533,268.0
773,2025-03-07 11:04:42.583,415.0
774,2025-03-07 11:04:42.633,586.0
775,2025-03-07 11:04:42.684,436.0
776,2025-03-07 11:04:42.734,587.0
777,2025-03-07 11:04:42.784,442.0
778,2025-03-07 11:04:42.835,572.0
779,2025-03-07 11:04:42.885,489.0
780,2025-03-07 11:04:42.935,525.0
781,2025-03-07 11:04:42.985,449.0
782,2025-03-07 11:04:43.036,581.0
783,2025-03-07 11:04:43.086,472.0
784,2025-03-07 11:04:43.136,580.0
785,2025-03-07 11:04:43.187,594.0
786,2025-03-07 11:04:43.237,634.0
787,2025-03-07 11:04:43.287,378.0
788,2025-03-07 11:04:43.337,525.0
789,2025-03-07 11:04:43.388,645.0
790,2025-03-07 11:04:43.438,347.0
791,2025-03-07 11:04:43.488,564.0
792,2025-03-07 11:04:43.538,539.0
793,2025-03-07 11:04:43.589,568.0
794,2025-03-07 11:04:43.639,564.0
795,2025-03-07 11:04:43.689,462.0
796,2025-03-07 11:04:43.740,597.0
797,2025-03-07 11:04:43.790,573.0
798,2025-03-07 11:04:43.840,566.0
799,2025-03-07 11:04:43.891,635.0
800,2025-03-07 11:04:43.941,491.0
801,2025-03-07 11:04:43.991,562.0
802,2025-03-07 11:04:44.041,439.0
803,2025-03-07 11:04:44.092,578.0
804,2025-03-07 11:04:44.142,489.0
805,2025-03-07 11:04:44.192,586.0
806,2025-03-07 11:04:44.242,452.0
807,2025-03-07 11:04:44.293,530.0
808,2025-03-07 11:04:44.343,489.0
809,2025-03-07 11:04:44.393,388.0
810,2025-03-07 11:04:44.444,559.0
811,2025-03-07 11:04:44.494,558.0
812,2025-03-07 11:04:44.544,484.0
813,2025-03-07 11:04:44.594,402.0
814,2025-03-07 11:04:44.645,516.0
815,2025-03-07 11:04:44.695,544.0
816,2025-03-07 11:04:44.745,505.0
817,2025-03-07 11:04:44.796,556.0
818,2025-03-07 11:04:44.846,597.0
819,2025-03-07 11:04:44.896,633.0
820,2025-03-07 11:04:44.946,526.0
821,2025-03-07 11:04:44.997,285.0
822,2025-03-07 11:04:45.047,588.0
823,2025-03-07 11:04:45.097,577.0
824,2025-03-07 11:04:45.147,587.0
825,2025-03-07 11:04:45.197,482.0
826,2025-03-07 11:04:45.248,437.0
827,2025-03-07 11:04:45.298,492.0
828,2025-03-07 11:04:45.348,511.0
829,2025-03-07 11:04:45.399,511.0
830,2025-03-07 11:04:45.449,511.0
831,2025-03-07 11:04:45.499,511.0
832,2025-03-07 11:04:45.550,509.0
833,2025-03-07 11:04:45.600,495.0
834,2025-03-07 11:04:45.650,518.0
835,2025-03-07 11:04:45.700,510.0
836,2025-03-07 11:04:45.751,535.0
837,2025-03-07 11:04:45.801,515.0
838,2025-03-07 11:04:45.851,494.0
839,2025-03-07 11:04:45.902,517.0
840,2025-03-07 11:04:45.952,518.0
841,2025-03-07 11:04:46.002,513.0
842,2025-03-07 11:04:46.052,511.0
843,2025-03-07 11:04:46.103,514.0
844,2025-03-07 11:04:46.153,549.0
845,2025-03-07 11:04:46.203,506.0
846,2025-03-07 11:04:46.253,453.0
847,2025-03-07 11:04:46.304,513.0
848,2025-03-07 11:04:46.354,511.0
849,2025-03-07 11:04:46.404,522.0
850,2025-03-07 11:04:46.455,419.0
851,2025-03-07 11:04:46.505,524.0
852,2025-03-07 11:04:46.555,459.0
853,2025-03-07 11:04:46.606,399.0
854,2025-03-07 11:04:46.656,548.0
855,2025-03-07 11:04:46.706,504.0
856,2025-03-07 11:04:46.756,507.0
857,2025-03-07 11:04:46.807,521.0
858,2025-03-07 11:04:46.857,506.0
859,2025-03-07 11:04:46.907,511.0
860,2025-03-07 11:04:46.958,511.0
861,2025-03-07 11:04:47.008,511.0
862,2025-03-07 11:04:47.058,511.0
863,2025-03-07 11:04:47.108,511.0
864,2025-03-07 11:04:47.159,511.0
865,2025-03-07 11:04:47.209,510.0
866,2025-03-07 11:04:47.259,511.0
867,2025-03-07 11:04:47.310,510.0
868,2025-03-07 11:04:47.360,511.0
869,2025-03-07 11:04:47.410,510.0
870,2025-03-07 11:04:47.461,511.0
871,2025-03-07 11:04:47.511,510.0
872,2025-03-07 11:04:47.561,511.0
873,2025-03-07 11:04:47.611,511.0
874,2025-03-07 11:04:47.661,511.0
875,2025-03-07 11:04:47.712,505.0
876,2025-03-07 11:04:47.762,499.0
877,2025-03-07 11:04:47.812,509.0
878,2025-03-07 11:04:47.863,515.0
879,2025-03-07 11:04:47.913,462.0
880,2025-03-07 11:04:47.963,521.0
881,2025-03-07 11:04:48.014,537.0
882,2025-03-07 11:04:48.064,507.0
883,2025-03-07 11:04:48.114,514.0
884,2025-03-07 11:04:48.164,439.0
885,2025-03-07 11:04:48.215,533.0
886,2025-03-07 11:04:48.265,544.0
887,2025-03-07 11:04:48.315,514.0
888,2025-03-07 11:04:48.365,495.0
889,2025-03-07 11:04:48.416,526.0
890,2025-03-07 11:04:48.466,558.0
891,2025-03-07 11:04:48.516,407.0
892,2025-03-07 11:04:48.567,451.0
893,2025-03-07 11:04:48.617,489.0
894,2025-03-07 11:04:48.667,535.0
895,2025-03-07 11:04:48.717,502.0
896,2025-03-07 11:04:48.768,492.0
897,2025-03-07 11:04:48.818,549.0
898,2025-03-07 11:04:48.868,527.0
899,2025-03-07 11:04:48.919,560.0
900,2025-03-07 11:04:48.969,546.0
901,2025-03-07 11:04:49.019,551.0
902,2025-03-07 11:04:49.070,541.0
903,2025-03-07 11:04:49.120,507.0
904,2025-03-07 11:04:49.170,495.0
905,2025-03-07 11:04:49.220,358.0
906,2025-03-07 11:04:49.271,534.0
907,2025-03-07 11:04:49.321,494.0
908,2025-03-07 11:04:49.371,546.0
909,2025-03-07 11:04:49.421,550.0
910,2025-03-07 11:04:49.472,548.0
911,2025-03-07 11:04:49.522,545.0
912,2025-03-07 11:04:49.572,536.0
913,2025-03-07 11:04:49.622,527.0
914,2025-03-07 11:04:49.673,459.0
915,2025-03-07 11:04:49.723,565.0
916,2025-03-07 11:04:49.773,400.0
917,2025-03-07 11:04:49.824,514.0
918,2025-03-07 11:04:49.874,507.0
919,2025-03-07 11:04:49.924,520.0
920,2025-03-07 11:04:49.974,557.0
921,2025-03-07 11:04:50.025,516.0
922,2025-03-07 11:04:50.075,530.0
923,2025-03-07 11:04:50.125,531.0
924,2025-03-07 11:04:50.176,490.0
925,2025-03-07 11:04:50.226,534.0
926,2025-03-07 11:04:50.276,412.0
927,2025-03-07 11:04:50.327,553.0
928,2025-03-07 11:04:50.377,490.0
929,2025-03-07 11:04:50.427,549.0
930,2025-03-07 11:04:50.477,531.0
931,2025-03-07 11:04:50.528,516.0
932,2025-03-07 11:04:50.578,467.0
933,2025-03-07 11:04:50.628,546.0
934,2025-03-07 11:04:50.678,467.0
935,2025-03-07 11:04:50.729,500.0
936,2025-03-07 11:04:50.779,575.0
937,2025-03-07 11:04:50.829,365.0
938,2025-03-07 11:04:50.880,515.0
939,2025-03-07 11:04:50.930,468.0
940,2025-03-07 11:04:50.980,536.0
941,2025-03-07 11:04:51.031,538.0
942,2025-03-07 11:04:51.081,514.0
943,2025-03-07 11:04:51.131,434.0
944,2025-03-07 11:04:51.181,534.0
945,2025-03-07 11:04:51.232,490.0
946,2025-03-07 11:04:51.282,544.0
947,2025-03-07 11:04:51.332,426.0
948,2025-03-07 11:04:51.382,563.0
949,2025-03-07 11:04:51.433,535.0
950,2025-03-07 11:04:51.483,529.0
951,2025-03-07 11:04:51.533,508.0
952,2025-03-07 11:04:51.584,552.0
953,2025-03-07 11:04:51.634,512.0
954,2025-03-07 11:04:51.684,514.0
955,2025-03-07 11:04:51.734,381.0
956,2025-03-07 11:04:51.785,449.0
957,2025-03-07 11:04:51.835,525.0
958,2025-03-07 11:04:51.885,519.0
959,2025-03-07 11:04:51.935,528.0
960,2025-03-07 11:04:51.986,506.0
961,2025-03-07 11:04:52.036,520.0
962,2025-03-07 11:04:52.086,535.0
963,2025-03-07 11:04:52.137,526.0
964,2025-03-07 11:04:52.187,502.0
965,2025-03-07 11:04:52.237,528.0
966,2025-03-07 11:04:52.287,535.0
967,2025-03-07 11:04:52.338,538.0
968,2025-03-07 11:04:52.388,229.0
969,2025-03-07 11:04:52.438,482.0
970,2025-03-07 11:04:52.489,524.0
971,2025-03-07 11:04:52.539,508.0
972,2025-03-07 11:04:52.589,495.0
973,2025-03-07 11:04:52.640,525.0
974,2025-03-07 11:04:52.690,537.0
975,2025-03-07 11:04:52.740,533.0
976,2025-03-07 11:04:52.790,529.0
977,2025-03-07 11:04:52.841,530.0
978,2025-03-07 11:04:52.891,525.0
979,2025-03-07 11:04:52.941,529.0
980,2025-03-07 11:04:52.991,543.0
981,2025-03-07 11:04:53.042,466.0
982,2025-03-07 11:04:53.092,483.0
983,2025-03-07 11:04:53.142,540.0
984,2025-03-07 11:04:53.193,498.0
985,2025-03-07 11:04:53.243,525.0
986,2025-03-07 11:04:53.293,483.0
987,2025-03-07 11:04:53.343,559.0
988,2025-03-07 11:04:53.394,560.0
989,2025-03-07 11:04:53.444,491.0
990,2025-03-07 11:04:53.494,558.0
991,2025-03-07 11:04:53.545,542.0
992,2025-03-07 11:04:53.595,511.0
993,2025-03-07 11:04:53.645,522.0
994,2025-03-07 11:04:53.695,544.0
995,2025-03-07 11:04:53.746,533.0
996,2025-03-07 11:04:53.796,520.0
997,2025-03-07 11:04:53.846,547.0
998,2025-03-07 11:04:53.897,548.0
999,2025-03-07 11:04:53.947,538.0
1000,2025-03-07 11:04:53.997,509.0
1001,2025-03-07 11:04:54.047,537.0
1002,2025-03-07 11:04:54.098,511.0
1003,2025-03-07 11:04:54.148,519.0
1004,2025-03-07 11:04:54.198,514.0
1005,2025-03-07 11:04:54.248,530.0
1006,2025-03-07 11:04:54.298,504.0
1007,2025-03-07 11:04:54.349,498.0
1008,2025-03-07 11:04:54.399,525.0
1009,2025-03-07 11:04:54.449,544.0
1010,2025-03-07 11:04:54.500,470.0
1011,2025-03-07 11:04:54.550,511.0
1012,2025-03-07 11:04:54.600,530.0
1013,2025-03-07 11:04:54.650,512.0
1014,2025-03-07 11:04:54.701,518.0
1015,2025-03-07 11:04:54.751,503.0
1016,2025-03-07 11:04:54.802,535.0
1017,2025-03-07 11:04:54.852,482.0
1018,2025-03-07 11:04:54.902,520.0
1019,2025-03-07 11:04:54.952,536.0
1020,2025-03-07 11:04:55.003,495.0
1021,2025-03-07 11:04:55.053,524.0
1022,2025-03-07 11:04:55.103,507.0
1023,2025-03-07 11:04:55.154,459.0
1024,2025-03-07 11:04:55.204,518.0
1025,2025-03-07 11:04:55.254,450.0
1026,2025-03-07 11:04:55.304,476.0
1027,2025-03-07 11:04:55.355,515.0
1028,2025-03-07 11:04:55.405,523.0
1029,2025-03-07 11:04:55.455,563.0
1030,2025-03-07 11:04:55.505,542.0
1031,2025-03-07 11:04:55.556,444.0
1032,2025-03-07 11:04:55.606,493.0
1033,2025-03-07 11:04:55.656,542.0
1034,2025-03-07 11:04:55.707,531.0
1035,2025-03-07 11:04:55.757,500.0
1036,2025-03-07 11:04:55.807,515.0
1037,2025-03-07 11:04:55.858,548.0
1038,2025-03-07 11:04:55.908,519.0
1039,2025-03-07 11:04:55.958,483.0
1040,2025-03-07 11:04:56.008,571.0
1041,2025-03-07 11:04:56.059,477.0
1042,2025-03-07 11:04:56.109,512.0
1043,2025-03-07 11:04:56.159,542.0
1044,2025-03-07 11:04:56.209,521.0
1045,2025-03-07 11:04:56.260,450.0
1046,2025-03-07 11:04:56.310,457.0
1047,2025-03-07 11:04:56.360,540.0
1048,2025-03-07 11:04:56.411,504.0
1049,2025-03-07 11:04:56.461,525.0
1050,2025-03-07 11:04:56.511,549.0
1051,2025-03-07 11:04:56.562,406.0
1052,2025-03-07 11:04:56.612,552.0
1053,2025-03-07 11:04:56.662,546.0
1054,2025-03-07 11:04:56.712,371.0
1055,2025-03-07 11:04:56.763,471.0
1056,2025-03-07 11:04:56.813,497.0
1057,2025-03-07 11:04:56.863,571.0
1058,2025-03-07 11:04:56.913,527.0
1059,2025-03-07 11:04:56.964,518.0
1060,2025-03-07 11:04:57.014,464.0
1061,2025-03-07 11:04:57.064,557.0
1062,2025-03-07 11:04:57.114,537.0
1063,2025-03-07 11:04:57.165,574.0
1064,2025-03-07 11:04:57.215,554.0
1065,2025-03-07 11:04:57.265,571.0
1066,2025-03-07 11:04:57.316,496.0
1067,2025-03-07 11:04:57.366,565.0
1068,2025-03-07 11:04:57.416,545.0
1069,2025-03-07 11:04:57.467,535.0
1070,2025-03-07 11:04:57.517,421.0
1071,2025-03-07 11:04:57.567,390.0
1072,2025-03-07 11:04:57.617,458.0
1073,2025-03-07 11:04:57.668,543.0
1074,2025-03-07 11:04:57.718,502.0
1075,2025-03-07 11:04:57.768,523.0
1076,2025-03-07 11:04:57.818,501.0
1077,2025-03-07 11:04:57.869,389.0
1078,2025-03-07 11:04:57.919,412.0
1079,2025-03-07 11:04:57.969,492.0
1080,2025-03-07 11:04:58.020,479.0
1081,2025-03-07 11:04:58.070,399.0
1082,2025-03-07 11:04:58.120,648.0
1083,2025-03-07 11:04:58.170,493.0
1084,2025-03-07 11:04:58.221,544.0
1085,2025-03-07 11:04:58.271,496.0
1086,2025-03-07 11:04:58.321,436.0
1087,2025-03-07 11:04:58.371,459.0
1088,2025-03-07 11:04:58.422,0.0
1089,2025-03-07 11:04:58.472,4.0
1090,2025-03-07 11:04:58.522,0.0
1091,2025-03-07 11:04:58.572,1.0
1092,2025-03-07 11:04:58.622,0.0
1093,2025-03-07 11:04:58.673,0.0
1094,2025-03-07 11:04:58.723,0.0
1095,2025-03-07 11:04:58.773,0.0
1096,2025-03-07 11:04:58.823,0.0
1097,2025-03-07 11:04:58.873,0.0
1098,2025-03-07 11:04:58.924,0.0
1099,2025-03-07 11:04:58.974,0.0
1100,2025-03-07 11:04:59.024,0.0
1101,2025-03-07 11:04:59.074,0.0
1102,2025-03-07 11:04:59.124,0.0
1103,2025-03-07 11:04:59.175,0.0
1104,2025-03-07 11:04:59.225,0.0
1105,2025-03-07 11:04:59.275,0.0
1106,2025-03-07 11:04:59.325,0.0
1107,2025-03-07 11:04:59.375,0.0
1108,2025-03-07 11:04:59.425,0.0
1109,2025-03-07 11:04:59.476,0.0
1110,2025-03-07 11:04:59.526,0.0
1111,2025-03-07 11:04:59.576,0.0
1112,2025-03-07 11:04:59.626,0.0
1113,2025-03-07 11:04:59.676,0.0
1114,2025-03-07 11:04:59.727,0.0
1115,2025-03-07 11:04:59.777,0.0
1116,2025-03-07 11:04:59.827,0.0
1117,2025-03-07 11:04:59.877,0.0
1118,2025-03-07 11:04:59.927,0.0
1119,2025-03-07 11:04:59.978,0.0
1120,2025-03-07 11:05:00.028,0.0
1121,2025-03-07 11:05:00.078,3.0
1122,2025-03-07 11:05:00.128,1.0
1123,2025-03-07 11:05:00.179,208.0
1124,2025-03-07 11:05:00.229,0.0
1125,2025-03-07 11:05:00.279,0.0
1126,2025-03-07 11:05:00.329,0.0
1127,2025-03-07 11:05:00.379,0.0
1128,2025-03-07 11:05:00.430,0.0
1129,2025-03-07 11:05:00.480,0.0
1130,2025-03-07 11:05:00.530,0.0
1131,2025-03-07 11:05:00.580,0.0
1132,2025-03-07 11:05:00.630,0.0
1133,2025-03-07 11:05:00.680,0.0
1134,2025-03-07 11:05:00.730,0.0
1135,2025-03-07 11:05:00.781,0.0
1136,2025-03-07 11:05:00.831,0.0
1137,2025-03-07 11:05:00.881,0.0
1138,2025-03-07 11:05:00.931,0.0
1139,2025-03-07 11:05:00.981,0.0
1140,2025-03-07 11:05:01.032,0.0
1141,2025-03-07 11:05:01.082,0.0
1142,2025-03-07 11:05:01.132,0.0
1143,2025-03-07 11:05:01.182,0.0
1144,2025-03-07 11:05:01.232,0.0
1145,2025-03-07 11:05:01.283,0.0
1146,2025-03-07 11:05:01.333,0.0
1147,2025-03-07 11:05:01.383,0.0
1148,2025-03-07 11:05:01.433,0.0
1149,2025-03-07 11:05:01.484,0.0
1150,2025-03-07 11:05:01.534,0.0
1151,2025-03-07 11:05:01.584,0.0
1152,2025-03-07 11:05:01.634,382.0
1153,2025-03-07 11:05:01.685,937.0
1154,2025-03-07 11:05:01.735,639.0
1155,2025-03-07 11:05:01.785,216.0
1156,2025-03-07 11:05:01.835,83.0
1157,2025-03-07 11:05:01.886,937.0
1158,2025-03-07 11:05:01.936,937.0
1159,2025-03-07 11:05:01.986,937.0
1160,2025-03-07 11:05:02.036,937.0
1161,2025-03-07 11:05:02.087,749.0
1162,2025-03-07 11:05:02.137,250.0
1163,2025-03-07 11:05:02.187,93.0
1164,2025-03-07 11:05:02.237,44.0
1165,2025-03-07 11:05:02.288,29.0
1166,2025-03-07 11:05:02.338,24.0
1167,2025-03-07 11:05:02.388,22.0
1168,2025-03-07 11:05:02.438,22.0
1169,2025-03-07 11:05:02.489,22.0
1170,2025-03-07 11:05:02.539,22.0
1171,2025-03-07 11:05:02.589,22.0
1172,2025-03-07 11:05:02.639,21.0
1173,2025-03-07 11:05:02.690,22.0
1174,2025-03-07 11:05:02.740,22.0
1175,2025-03-07 11:05:02.790,22.0
1176,2025-03-07 11:05:02.840,22.0
1177,2025-03-07 11:05:02.890,21.0
1178,2025-03-07 11:05:02.941,22.0
1179,2025-03-07 11:05:02.991,21.0
1180,2025-03-07 11:05:03.041,22.0
1181,2025-03-07 11:05:03.092,21.0
1182,2025-03-07 11:05:03.142,22.0
1183,2025-03-07 11:05:03.192,22.0
1184,2025-03-07 11:05:03.242,21.0
1185,2025-03-07 11:05:03.293,22.0
1186,2025-03-07 11:05:03.343,22.0
1187,2025-03-07 11:05:03.393,22.0
1188,2025-03-07 11:05:03.443,21.0
1189,2025-03-07 11:05:03.494,22.0
1190,2025-03-07 11:05:03.544,22.0
1191,2025-03-07 11:05:03.594,22.0
1192,2025-03-07 11:05:03.644,22.0
1193,2025-03-07 11:05:03.694,22.0
1194,2025-03-07 11:05:03.745,21.0
1195,2025-03-07 11:05:03.795,21.0
1196,2025-03-07 11:05:03.845,64.0
1197,2025-03-07 11:05:03.896,143.0
1198,2025-03-07 11:05:03.946,317.0
1199,2025-03-07 11:05:03.996,418.0
1200,2025-03-07 11:05:04.046,690.0
1201,2025-03-07 11:05:04.096,936.0
1202,2025-03-07 11:05:04.147,936.0
1203,2025-03-07 11:05:04.197,937.0
1204,2025-03-07 11:05:04.247,937.0
1205,2025-03-07 11:05:04.298,937.0
1206,2025-03-07 11:05:04.348,937.0
1207,2025-03-07 11:05:04.398,937.0
1208,2025-03-07 11:05:04.448,937.0
1209,2025-03-07 11:05:04.499,936.0
1210,2025-03-07 11:05:04.549,936.0
1211,2025-03-07 11:05:04.599,925.0
1212,2025-03-07 11:05:04.649,936.0
1213,2025-03-07 11:05:04.700,936.0
1214,2025-03-07 11:05:04.750,937.0
1215,2025-03-07 11:05:04.800,937.0
1216,2025-03-07 11:05:04.851,937.0
1217,2025-03-07 11:05:04.901,937.0
1218,2025-03-07 11:05:04.951,937.0
1219,2025-03-07 11:05:05.002,937.0
1220,2025-03-07 11:05:05.052,937.0
1221,2025-03-07 11:05:05.102,937.0
1222,2025-03-07 11:05:05.153,937.0
1223,2025-03-07 11:05:05.203,937.0
1224,2025-03-07 11:05:05.253,937.0
1225,2025-03-07 11:05:05.303,937.0
1226,2025-03-07 11:05:05.354,937.0
1227,2025-03-07 11:05:05.404,937.0
1228,2025-03-07 11:05:05.454,937.0
1229,2025-03-07 11:05:05.504,937.0
1230,2025-03-07 11:05:05.555,937.0
1231,2025-03-07 11:05:05.605,937.0
1232,2025-03-07 11:05:05.655,937.0
1233,2025-03-07 11:05:05.705,937.0
1234,2025-03-07 11:05:05.756,936.0
1235,2025-03-07 11:05:05.806,936.0
1236,2025-03-07 11:05:05.856,936.0
1237,2025-03-07 11:05:05.907,936.0
1238,2025-03-07 11:05:05.957,936.0
1239,2025-03-07 11:05:06.007,936.0
1240,2025-03-07 11:05:06.058,936.0
1241,2025-03-07 11:05:06.108,936.0
1242,2025-03-07 11:05:06.158,936.0
1243,2025-03-07 11:05:06.209,937.0
1244,2025-03-07 11:05:06.259,937.0
1245,2025-03-07 11:05:06.309,937.0
1246,2025-03-07 11:05:06.359,937.0
1247,2025-03-07 11:05:06.410,937.0
1248,2025-03-07 11:05:06.460,937.0
1249,2025-03-07 11:05:06.510,937.0
1250,2025-03-07 11:05:06.560,937.0
1251,2025-03-07 11:05:06.611,937.0
1252,2025-03-07 11:05:06.661,937.0
1253,2025-03-07 11:05:06.711,937.0
1254,2025-03-07 11:05:06.762,937.0
1255,2025-03-07 11:05:06.812,937.0
1256,2025-03-07 11:05:06.862,937.0
1257,2025-03-07 11:05:06.912,937.0
1258,2025-03-07 11:05:06.963,936.0
1259,2025-03-07 11:05:07.013,937.0
1260,2025-03-07 11:05:07.063,937.0
1261,2025-03-07 11:05:07.114,937.0
1262,2025-03-07 11:05:07.164,937.0
1263,2025-03-07 11:05:07.214,937.0
1264,2025-03-07 11:05:07.264,937.0
1265,2025-03-07 11:05:07.315,936.0
1266,2025-03-07 11:05:07.365,936.0
1267,2025-03-07 11:05:07.415,936.0
1268,2025-03-07 11:05:07.466,937.0
1269,2025-03-07 11:05:07.516,937.0
1270,2025-03-07 11:05:07.566,937.0
1271,2025-03-07 11:05:07.616,937.0
1272,2025-03-07 11:05:07.667,937.0
1273,2025-03-07 11:05:07.717,937.0
1274,2025-03-07 11:05:07.767,937.0
1275,2025-03-07 11:05:07.818,937.0
1276,2025-03-07 11:05:07.868,936.0
1277,2025-03-07 11:05:07.918,936.0
1278,2025-03-07 11:05:07.968,937.0
1279,2025-03-07 11:05:08.018,937.0
1280,2025-03-07 11:05:08.069,937.0
1281,2025-03-07 11:05:08.119,937.0
1282,2025-03-07 11:05:08.169,937.0
1283,2025-03-07 11:05:08.220,937.0
1284,2025-03-07 11:05:08.270,937.0
1285,2025-03-07 11:05:08.320,937.0
1286,2025-03-07 11:05:08.370,937.0
1287,2025-03-07 11:05:08.421,937.0
1288,2025-03-07 11:05:08.471,936.0
1289,2025-03-07 11:05:08.521,936.0
1290,2025-03-07 11:05:08.572,936.0
1291,2025-03-07 11:05:08.622,937.0
1292,2025-03-07 11:05:08.672,936.0
1293,2025-03-07 11:05:08.723,936.0
1294,2025-03-07 11:05:08.773,937.0
1295,2025-03-07 11:05:08.823,936.0
1296,2025-03-07 11:05:08.873,937.0
1297,2025-03-07 11:05:08.924,937.0
1298,2025-03-07 11:05:08.974,937.0
1299,2025-03-07 11:05:09.024,937.0
1300,2025-03-07 11:05:09.075,937.0
1301,2025-03-07 11:05:09.125,937.0
1302,2025-03-07 11:05:09.175,937.0
1303,2025-03-07 11:05:09.225,937.0
1304,2025-03-07 11:05:09.276,937.0
1305,2025-03-07 11:05:09.326,936.0
1306,2025-03-07 11:05:09.376,936.0
1307,2025-03-07 11:05:09.426,936.0
1308,2025-03-07 11:05:09.477,936.0
1309,2025-03-07 11:05:09.527,937.0
1310,2025-03-07 11:05:09.577,936.0
1311,2025-03-07 11:05:09.628,937.0
1312,2025-03-07 11:05:09.678,937.0
1313,2025-03-07 11:05:09.728,937.0
1314,2025-03-07 11:05:09.779,937.0
1315,2025-03-07 11:05:09.829,936.0
1316,2025-03-07 11:05:09.879,937.0
1317,2025-03-07 11:05:09.929,936.0
1318,2025-03-07 11:05:09.980,937.0
1319,2025-03-07 11:05:10.030,937.0
1320,2025-03-07 11:05:10.080,937.0
1321,2025-03-07 11:05:10.130,937.0
1322,2025-03-07 11:05:10.181,937.0
1323,2025-03-07 11:05:10.231,937.0
1324,2025-03-07 11:05:10.281,937.0
1325,2025-03-07 11:05:10.331,937.0
1326,2025-03-07 11:05:10.382,937.0
1327,2025-03-07 11:05:10.432,937.0
1328,2025-03-07 11:05:10.482,936.0
1329,2025-03-07 11:05:10.533,937.0
1330,2025-03-07 11:05:10.583,937.0
1331,2025-03-07 11:05:10.633,937.0
1332,2025-03-07 11:05:10.684,937.0
1333,2025-03-07 11:05:10.734,937.0
1334,2025-03-07 11:05:10.784,937.0
1335,2025-03-07 11:05:10.834,936.0
1336,2025-03-07 11:05:10.885,937.0
1337,2025-03-07 11:05:10.935,937.0
1338,2025-03-07 11:05:10.985,936.0
1339,2025-03-07 11:05:11.035,936.0
1340,2025-03-07 11:05:11.086,936.0
1341,2025-03-07 11:05:11.136,936.0
1342,2025-03-07 11:05:11.186,936.0
1343,2025-03-07 11:05:11.237,937.0
1344,2025-03-07 11:05:11.287,937.0
1345,2025-03-07 11:05:11.337,936.0
1346,2025-03-07 11:05:11.388,937.0
1347,2025-03-07 11:05:11.438,937.0
1348,2025-03-07 11:05:11.488,936.0
1349,2025-03-07 11:05:11.539,937.0
1350,2025-03-07 11:05:11.588,937.0
1351,2025-03-07 11:05:11.639,937.0
1352,2025-03-07 11:05:11.689,937.0
1353,2025-03-07 11:05:11.739,937.0
1354,2025-03-07 11:05:11.790,937.0
1355,2025-03-07 11:05:11.840,937.0
1356,2025-03-07 11:05:11.890,937.0
1357,2025-03-07 11:05:11.941,936.0
1358,2025-03-07 11:05:11.991,936.0
1359,2025-03-07 11:05:12.041,936.0
1360,2025-03-07 11:05:12.092,936.0
1361,2025-03-07 11:05:12.142,936.0
1362,2025-03-07 11:05:12.192,937.0
1363,2025-03-07 11:05:12.242,937.0
1364,2025-03-07 11:05:12.292,937.0
1365,2025-03-07 11:05:12.343,937.0
1366,2025-03-07 11:05:12.393,936.0
1367,2025-03-07 11:05:12.443,937.0
1368,2025-03-07 11:05:12.494,936.0
1369,2025-03-07 11:05:12.544,936.0
1370,2025-03-07 11:05:12.594,936.0
1371,2025-03-07 11:05:12.644,936.0
1372,2025-03-07 11:05:12.695,936.0
1373,2025-03-07 11:05:12.745,936.0
1374,2025-03-07 11:05:12.795,936.0
1375,2025-03-07 11:05:12.846,936.0
1376,2025-03-07 11:05:12.896,937.0
1377,2025-03-07 11:05:12.946,937.0
1378,2025-03-07 11:05:12.996,937.0
1379,2025-03-07 11:05:13.047,936.0
1380,2025-03-07 11:05:13.097,936.0
1381,2025-03-07 11:05:13.147,937.0
1382,2025-03-07 11:05:13.198,937.0
1383,2025-03-07 11:05:13.248,937.0
1384,2025-03-07 11:05:13.298,937.0
1385,2025-03-07 11:05:13.348,937.0
1386,2025-03-07 11:05:13.399,937.0
1387,2025-03-07 11:05:13.449,937.0
1388,2025-03-07 11:05:13.499,937.0
1389,2025-03-07 11:05:13.549,937.0
1390,2025-03-07 11:05:13.600,936.0
1391,2025-03-07 11:05:13.650,936.0
1392,2025-03-07 11:05:13.700,936.0
1393,2025-03-07 11:05:13.750,936.0
1394,2025-03-07 11:05:13.801,936.0
1395,2025-03-07 11:05:13.851,936.0
1396,2025-03-07 11:05:13.902,936.0
1397,2025-03-07 11:05:13.952,937.0
1398,2025-03-07 11:05:14.002,937.0
1399,2025-03-07 11:05:14.052,937.0
1400,2025-03-07 11:05:14.103,937.0
1401,2025-03-07 11:05:14.153,937.0
1402,2025-03-07 11:05:14.203,937.0
1403,2025-03-07 11:05:14.253,937.0
1404,2025-03-07 11:05:14.304,937.0
1405,2025-03-07 11:05:14.354,937.0
1406,2025-03-07 11:05:14.404,936.0
1407,2025-03-07 11:05:14.455,937.0
1408,2025-03-07 11:05:14.505,937.0
1409,2025-03-07 11:05:14.555,937.0
1410,2025-03-07 11:05:14.605,937.0
1411,2025-03-07 11:05:14.656,937.0
1412,2025-03-07 11:05:14.706,936.0
1413,2025-03-07 11:05:14.756,936.0
1414,2025-03-07 11:05:14.807,936.0
1415,2025-03-07 11:05:14.857,936.0
1416,2025-03-07 11:05:14.907,936.0
1417,2025-03-07 11:05:14.957,937.0
1418,2025-03-07 11:05:15.008,937.0
1419,2025-03-07 11:05:15.058,937.0
1420,2025-03-07 11:05:15.108,937.0
1421,2025-03-07 11:05:15.159,937.0
1422,2025-03-07 11:05:15.209,936.0
1423,2025-03-07 11:05:15.259,936.0
1424,2025-03-07 11:05:15.309,936.0
1425,2025-03-07 11:05:15.360,936.0
1426,2025-03-07 11:05:15.410,936.0
1427,2025-03-07 11:05:15.460,936.0
1428,2025-03-07 11:05:15.511,936.0
1429,2025-03-07 11:05:15.561,936.0
1430,2025-03-07 11:05:15.611,936.0
1431,2025-03-07 11:05:15.661,936.0
1432,2025-03-07 11:05:15.712,937.0
1433,2025-03-07 11:05:15.762,936.0
1434,2025-03-07 11:05:15.812,936.0
1435,2025-03-07 11:05:15.863,936.0
1436,2025-03-07 11:05:15.913,937.0
1437,2025-03-07 11:05:15.963,936.0
1438,2025-03-07 11:05:16.013,937.0
1439,2025-03-07 11:05:16.064,936.0
1440,2025-03-07 11:05:16.114,936.0
1441,2025-03-07 11:05:16.164,936.0
1442,2025-03-07 11:05:16.215,937.0
1443,2025-03-07 11:05:16.265,937.0
1444,2025-03-07 11:05:16.315,937.0
1445,2025-03-07 11:05:16.365,937.0
1446,2025-03-07 11:05:16.415,937.0
1447,2025-03-07 11:05:16.466,937.0
1448,2025-03-07 11:05:16.516,937.0
1449,2025-03-07 11:05:16.566,936.0
1450,2025-03-07 11:05:16.617,936.0
1451,2025-03-07 11:05:16.667,936.0
1452,2025-03-07 11:05:16.717,937.0
1453,2025-03-07 11:05:16.768,937.0
1454,2025-03-07 11:05:16.818,937.0
1455,2025-03-07 11:05:16.868,937.0
1456,2025-03-07 11:05:16.919,937.0
1457,2025-03-07 11:05:16.969,937.0
1458,2025-03-07 11:05:17.019,936.0
1459,2025-03-07 11:05:17.069,936.0
1460,2025-03-07 11:05:17.120,936.0
1461,2025-03-07 11:05:17.170,936.0
1462,2025-03-07 11:05:17.220,936.0
1463,2025-03-07 11:05:17.271,937.0
1464,2025-03-07 11:05:17.321,937.0
1465,2025-03-07 11:05:17.371,937.0
1466,2025-03-07 11:05:17.421,937.0
1467,2025-03-07 11:05:17.472,937.0
1468,2025-03-07 11:05:17.522,937.0
1469,2025-03-07 11:05:17.572,936.0
1470,2025-03-07 11:05:17.622,936.0
1471,2025-03-07 11:05:17.673,936.0
1472,2025-03-07 11:05:17.723,936.0
1473,2025-03-07 11:05:17.773,937.0
1474,2025-03-07 11:05:17.824,936.0
1475,2025-03-07 11:05:17.874,937.0
1476,2025-03-07 11:05:17.924,937.0
1477,2025-03-07 11:05:17.974,937.0
1478,2025-03-07 11:05:18.025,937.0
1479,2025-03-07 11:05:18.075,936.0
1480,2025-03-07 11:05:18.125,936.0
1481,2025-03-07 11:05:18.176,936.0
1482,2025-03-07 11:05:18.226,936.0
1483,2025-03-07 11:05:18.276,936.0
1484,2025-03-07 11:05:18.326,937.0
1485,2025-03-07 11:05:18.377,936.0
1486,2025-03-07 11:05:18.427,936.0
1487,2025-03-07 11:05:18.477,936.0
1488,2025-03-07 11:05:18.528,937.0
1489,2025-03-07 11:05:18.578,936.0
1490,2025-03-07 11:05:18.628,936.0
1491,2025-03-07 11:05:18.678,936.0
1492,2025-03-07 11:05:18.729,936.0
1493,2025-03-07 11:05:18.779,937.0
1494,2025-03-07 11:05:18.829,936.0
1495,2025-03-07 11:05:18.879,936.0
1496,2025-03-07 11:05:18.930,936.0
1497,2025-03-07 11:05:18.980,936.0
1498,2025-03-07 11:05:19.030,936.0
1499,2025-03-07 11:05:19.081,936.0
1500,2025-03-07 11:05:19.131,937.0
1501,2025-03-07 11:05:19.181,937.0
1502,2025-03-07 11:05:19.231,936.0
1503,2025-03-07 11:05:19.282,937.0
1504,2025-03-07 11:05:19.332,937.0
1505,2025-03-07 11:05:19.382,937.0
1506,2025-03-07 11:05:19.433,937.0
1507,2025-03-07 11:05:19.483,937.0
1508,2025-03-07 11:05:19.533,937.0
1509,2025-03-07 11:05:19.583,937.0
1510,2025-03-07 11:05:19.634,937.0
1511,2025-03-07 11:05:19.684,936.0
1512,2025-03-07 11:05:19.735,937.0
1513,2025-03-07 11:05:19.785,937.0
1514,2025-03-07 11:05:19.835,936.0
1515,2025-03-07 11:05:19.885,937.0
1516,2025-03-07 11:05:19.935,936.0
1517,2025-03-07 11:05:19.986,936.0
1518,2025-03-07 11:05:20.036,936.0
1519,2025-03-07 11:05:20.086,936.0
1520,2025-03-07 11:05:20.137,935.0
1521,2025-03-07 11:05:20.187,936.0
1522,2025-03-07 11:05:20.237,936.0
1523,2025-03-07 11:05:20.287,936.0
1524,2025-03-07 11:05:20.337,878.0
1525,2025-03-07 11:05:20.388,858.0
1526,2025-03-07 11:05:20.438,936.0
1527,2025-03-07 11:05:20.488,936.0
1528,2025-03-07 11:05:20.539,936.0
1529,2025-03-07 11:05:20.589,936.0
1530,2025-03-07 11:05:20.640,937.0
1531,2025-03-07 11:05:20.690,937.0
1532,2025-03-07 11:05:20.740,936.0
1533,2025-03-07 11:05:20.790,936.0
1534,2025-03-07 11:05:20.841,937.0
1535,2025-03-07 11:05:20.891,937.0
1536,2025-03-07 11:05:20.941,937.0
1537,2025-03-07 11:05:20.991,936.0
1538,2025-03-07 11:05:21.042,936.0
1539,2025-03-07 11:05:21.092,936.0
1540,2025-03-07 11:05:21.142,936.0
1541,2025-03-07 11:05:21.192,936.0
1542,2025-03-07 11:05:21.243,937.0
1543,2025-03-07 11:05:21.293,937.0
1544,2025-03-07 11:05:21.343,936.0
1545,2025-03-07 11:05:21.394,936.0
1546,2025-03-07 11:05:21.444,936.0
1547,2025-03-07 11:05:21.494,936.0
1548,2025-03-07 11:05:21.544,936.0
1549,2025-03-07 11:05:21.594,936.0
1550,2025-03-07 11:05:21.645,936.0
1551,2025-03-07 11:05:21.695,936.0
1552,2025-03-07 11:05:21.745,936.0
1553,2025-03-07 11:05:21.796,936.0
1554,2025-03-07 11:05:21.846,936.0
1555,2025-03-07 11:05:21.897,936.0
1556,2025-03-07 11:05:21.947,936.0
1557,2025-03-07 11:05:21.997,936.0
1558,2025-03-07 11:05:22.047,936.0
1559,2025-03-07 11:05:22.097,934.0
1560,2025-03-07 11:05:22.148,936.0
1561,2025-03-07 11:05:22.198,936.0
1562,2025-03-07 11:05:22.248,936.0
1563,2025-03-07 11:05:22.299,935.0
1564,2025-03-07 11:05:22.349,936.0
1565,2025-03-07 11:05:22.399,935.0
1566,2025-03-07 11:05:22.450,935.0
1567,2025-03-07 11:05:22.500,936.0
1568,2025-03-07 11:05:22.550,936.0
1569,2025-03-07 11:05:22.600,936.0
1570,2025-03-07 11:05:22.651,936.0
1571,2025-03-07 11:05:22.719,936.0
1572,2025-03-07 11:05:22.751,936.0
1573,2025-03-07 11:05:22.801,936.0
1574,2025-03-07 11:05:22.851,936.0
1575,2025-03-07 11:05:22.902,936.0
1576,2025-03-07 11:05:22.952,936.0
1577,2025-03-07 11:05:23.003,936.0
1578,2025-03-07 11:05:23.053,936.0
1579,2025-03-07 11:05:23.103,936.0
1580,2025-03-07 11:05:23.153,936.0
1581,2025-03-07 11:05:23.204,936.0
1582,2025-03-07 11:05:23.254,936.0
1583,2025-03-07 11:05:23.305,849.0
1584,2025-03-07 11:05:23.355,836.0
1585,2025-03-07 11:05:23.405,840.0
1586,2025-03-07 11:05:23.455,795.0
1587,2025-03-07 11:05:23.505,935.0
1588,2025-03-07 11:05:23.556,936.0
1589,2025-03-07 11:05:23.607,936.0
1590,2025-03-07 11:05:23.656,936.0
1591,2025-03-07 11:05:23.707,936.0
1592,2025-03-07 11:05:23.757,910.0
1593,2025-03-07 11:05:23.807,828.0
1594,2025-03-07 11:05:23.858,827.0
1595,2025-03-07 11:05:23.908,936.0
1596,2025-03-07 11:05:23.958,936.0
1597,2025-03-07 11:05:24.009,931.0
1598,2025-03-07 11:05:24.059,865.0
1599,2025-03-07 11:05:24.109,864.0
1600,2025-03-07 11:05:24.159,933.0
1601,2025-03-07 11:05:24.210,936.0
1602,2025-03-07 11:05:24.260,930.0
1603,2025-03-07 11:05:24.310,802.0
1604,2025-03-07 11:05:24.360,680.0
1605,2025-03-07 11:05:24.411,936.0
1606,2025-03-07 11:05:24.461,936.0
1607,2025-03-07 11:05:24.511,936.0
1608,2025-03-07 11:05:24.562,936.0
1609,2025-03-07 11:05:24.612,936.0
1610,2025-03-07 11:05:24.662,936.0
1611,2025-03-07 11:05:24.712,735.0
1612,2025-03-07 11:05:24.762,642.0
1613,2025-03-07 11:05:24.813,767.0
1614,2025-03-07 11:05:24.863,678.0
1615,2025-03-07 11:05:24.914,703.0
1616,2025-03-07 11:05:24.964,742.0
1617,2025-03-07 11:05:25.014,935.0
1618,2025-03-07 11:05:25.064,894.0
1619,2025-03-07 11:05:25.114,684.0
1620,2025-03-07 11:05:25.164,899.0
1621,2025-03-07 11:05:25.215,908.0
1622,2025-03-07 11:05:25.265,879.0
1623,2025-03-07 11:05:25.315,746.0
1624,2025-03-07 11:05:25.366,675.0
1625,2025-03-07 11:05:25.416,645.0
1626,2025-03-07 11:05:25.466,935.0
1627,2025-03-07 11:05:25.517,936.0
1628,2025-03-07 11:05:25.567,936.0
1629,2025-03-07 11:05:25.617,935.0
1630,2025-03-07 11:05:25.667,839.0
1631,2025-03-07 11:05:25.718,845.0
1632,2025-03-07 11:05:25.768,936.0
1633,2025-03-07 11:05:25.818,936.0
1634,2025-03-07 11:05:25.869,758.0
1635,2025-03-07 11:05:25.919,936.0
1636,2025-03-07 11:05:25.969,935.0
1637,2025-03-07 11:05:26.019,936.0
1638,2025-03-07 11:05:26.070,916.0
1639,2025-03-07 11:05:26.120,936.0
1640,2025-03-07 11:05:26.170,936.0
1641,2025-03-07 11:05:26.221,937.0
1642,2025-03-07 11:05:26.271,936.0
1643,2025-03-07 11:05:26.321,928.0
1644,2025-03-07 11:05:26.371,688.0
1645,2025-03-07 11:05:26.422,902.0
1646,2025-03-07 11:05:26.472,936.0
1647,2025-03-07 11:05:26.522,906.0
1648,2025-03-07 11:05:26.573,820.0
1649,2025-03-07 11:05:26.623,936.0
1650,2025-03-07 11:05:26.673,825.0
1651,2025-03-07 11:05:26.723,834.0
1652,2025-03-07 11:05:26.774,854.0
1653,2025-03-07 11:05:26.824,885.0
1654,2025-03-07 11:05:26.875,817.0
1655,2025-03-07 11:05:26.925,936.0
1656,2025-03-07 11:05:26.975,936.0
1657,2025-03-07 11:05:27.025,936.0
1658,2025-03-07 11:05:27.076,936.0
1659,2025-03-07 11:05:27.126,936.0
1660,2025-03-07 11:05:27.176,936.0
1661,2025-03-07 11:05:27.226,936.0
1662,2025-03-07 11:05:27.277,922.0
1663,2025-03-07 11:05:27.327,936.0
1664,2025-03-07 11:05:27.377,936.0
1665,2025-03-07 11:05:27.428,936.0
1666,2025-03-07 11:05:27.478,936.0
1667,2025-03-07 11:05:27.528,936.0
1668,2025-03-07 11:05:27.578,936.0
1669,2025-03-07 11:05:27.629,936.0
1670,2025-03-07 11:05:27.679,936.0
1671,2025-03-07 11:05:27.729,910.0
1672,2025-03-07 11:05:27.780,936.0
1673,2025-03-07 11:05:27.830,936.0
1674,2025-03-07 11:05:27.880,936.0
1675,2025-03-07 11:05:27.930,936.0
1676,2025-03-07 11:05:27.981,936.0
1677,2025-03-07 11:05:28.031,936.0
1678,2025-03-07 11:05:28.081,936.0
1679,2025-03-07 11:05:28.131,933.0
1680,2025-03-07 11:05:28.182,936.0
1681,2025-03-07 11:05:28.232,936.0
1682,2025-03-07 11:05:28.282,936.0
1683,2025-03-07 11:05:28.333,936.0
1684,2025-03-07 11:05:28.383,936.0
1685,2025-03-07 11:05:28.433,936.0
1686,2025-03-07 11:05:28.484,936.0
1687,2025-03-07 11:05:28.534,937.0
1688,2025-03-07 11:05:28.584,936.0
1689,2025-03-07 11:05:28.634,935.0
1690,2025-03-07 11:05:28.684,936.0
1691,2025-03-07 11:05:28.735,828.0
1692,2025-03-07 11:05:28.785,936.0
1693,2025-03-07 11:05:28.835,936.0
1694,2025-03-07 11:05:28.886,936.0
1695,2025-03-07 11:05:28.936,936.0
1696,2025-03-07 11:05:28.986,936.0
1697,2025-03-07 11:05:29.037,936.0
1698,2025-03-07 11:05:29.087,867.0
1699,2025-03-07 11:05:29.137,837.0
1700,2025-03-07 11:05:29.188,902.0
1701,2025-03-07 11:05:29.238,855.0
1702,2025-03-07 11:05:29.288,850.0
1703,2025-03-07 11:05:29.338,936.0
1704,2025-03-07 11:05:29.388,843.0
1705,2025-03-07 11:05:29.439,879.0
1706,2025-03-07 11:05:29.489,936.0
1707,2025-03-07 11:05:29.539,936.0
1708,2025-03-07 11:05:29.590,922.0
1709,2025-03-07 11:05:29.640,605.0
1710,2025-03-07 11:05:29.690,818.0
1711,2025-03-07 11:05:29.740,936.0
1712,2025-03-07 11:05:29.791,936.0
1713,2025-03-07 11:05:29.841,912.0
1714,2025-03-07 11:05:29.891,936.0
1715,2025-03-07 11:05:29.942,925.0
1716,2025-03-07 11:05:29.992,924.0
1717,2025-03-07 11:05:30.042,936.0
1718,2025-03-07 11:05:30.093,936.0
1719,2025-03-07 11:05:30.143,936.0
1720,2025-03-07 11:05:30.193,936.0
1721,2025-03-07 11:05:30.243,936.0
1722,2025-03-07 11:05:30.293,936.0
1723,2025-03-07 11:05:30.344,936.0
1724,2025-03-07 11:05:30.394,911.0
1725,2025-03-07 11:05:30.444,936.0
1726,2025-03-07 11:05:30.495,936.0
1727,2025-03-07 11:05:30.545,895.0
1728,2025-03-07 11:05:30.595,821.0
1729,2025-03-07 11:05:30.646,897.0
1730,2025-03-07 11:05:30.696,707.0
1731,2025-03-07 11:05:30.746,830.0
1732,2025-03-07 11:05:30.796,936.0
1733,2025-03-07 11:05:30.847,936.0
1734,2025-03-07 11:05:30.897,936.0
1735,2025-03-07 11:05:30.947,934.0
1736,2025-03-07 11:05:30.997,858.0
1737,2025-03-07 11:05:31.047,933.0
1738,2025-03-07 11:05:31.097,936.0
1739,2025-03-07 11:05:31.148,936.0
1740,2025-03-07 11:05:31.198,937.0
1741,2025-03-07 11:05:31.249,937.0
1742,2025-03-07 11:05:31.299,936.0
1743,2025-03-07 11:05:31.349,936.0
1744,2025-03-07 11:05:31.399,792.0
1745,2025-03-07 11:05:31.450,936.0
1746,2025-03-07 11:05:31.500,936.0
1747,2025-03-07 11:05:31.550,935.0
1748,2025-03-07 11:05:31.601,936.0
1749,2025-03-07 11:05:31.651,936.0
1750,2025-03-07 11:05:31.701,936.0
1751,2025-03-07 11:05:31.752,936.0
1752,2025-03-07 11:05:31.802,936.0
1753,2025-03-07 11:05:31.852,936.0
1754,2025-03-07 11:05:31.902,936.0
1755,2025-03-07 11:05:31.952,909.0
1756,2025-03-07 11:05:32.003,873.0
1757,2025-03-07 11:05:32.053,936.0
1758,2025-03-07 11:05:32.103,936.0
1759,2025-03-07 11:05:32.154,936.0
1760,2025-03-07 11:05:32.204,936.0
1761,2025-03-07 11:05:32.254,887.0
1762,2025-03-07 11:05:32.305,935.0
1763,2025-03-07 11:05:32.355,902.0
1764,2025-03-07 11:05:32.405,935.0
1765,2025-03-07 11:05:32.456,911.0
1766,2025-03-07 11:05:32.506,935.0
1767,2025-03-07 11:05:32.556,935.0
1768,2025-03-07 11:05:32.606,921.0
1769,2025-03-07 11:05:32.657,936.0
1770,2025-03-07 11:05:32.707,898.0
1771,2025-03-07 11:05:32.757,879.0
1772,2025-03-07 11:05:32.808,927.0
1773,2025-03-07 11:05:32.858,936.0
1774,2025-03-07 11:05:32.908,936.0
1775,2025-03-07 11:05:32.959,936.0
1776,2025-03-07 11:05:33.009,936.0
1777,2025-03-07 11:05:33.059,937.0
1778,2025-03-07 11:05:33.109,937.0
1779,2025-03-07 11:05:33.160,937.0
1780,2025-03-07 11:05:33.210,937.0
1781,2025-03-07 11:05:33.260,936.0
1782,2025-03-07 11:05:33.311,937.0
1783,2025-03-07 11:05:33.361,937.0
1784,2025-03-07 11:05:33.411,936.0
1785,2025-03-07 11:05:33.461,936.0
1786,2025-03-07 11:05:33.512,871.0
1787,2025-03-07 11:05:33.562,619.0
1788,2025-03-07 11:05:33.612,867.0
1789,2025-03-07 11:05:33.662,935.0
1790,2025-03-07 11:05:33.713,936.0
1791,2025-03-07 11:05:33.763,936.0
1792,2025-03-07 11:05:33.813,936.0
1793,2025-03-07 11:05:33.864,936.0
1794,2025-03-07 11:05:33.914,935.0
1795,2025-03-07 11:05:33.964,889.0
1796,2025-03-07 11:05:34.014,935.0
1797,2025-03-07 11:05:34.065,823.0
1798,2025-03-07 11:05:34.115,914.0
1799,2025-03-07 11:05:34.165,753.0
1800,2025-03-07 11:05:34.215,935.0
1801,2025-03-07 11:05:34.266,936.0
1802,2025-03-07 11:05:34.316,936.0
1803,2025-03-07 11:05:34.366,915.0
1804,2025-03-07 11:05:34.417,797.0
1805,2025-03-07 11:05:34.467,824.0
1806,2025-03-07 11:05:34.517,850.0
1807,2025-03-07 11:05:34.567,935.0
1808,2025-03-07 11:05:34.618,747.0
1809,2025-03-07 11:05:34.668,731.0
1810,2025-03-07 11:05:34.718,856.0
1811,2025-03-07 11:05:34.769,683.0
1812,2025-03-07 11:05:34.818,684.0
1813,2025-03-07 11:05:34.869,936.0
1814,2025-03-07 11:05:34.919,936.0
1815,2025-03-07 11:05:34.970,936.0
1816,2025-03-07 11:05:35.019,936.0
1817,2025-03-07 11:05:35.070,936.0
1818,2025-03-07 11:05:35.122,936.0
1819,2025-03-07 11:05:35.170,936.0
1820,2025-03-07 11:05:35.221,936.0
1821,2025-03-07 11:05:35.271,864.0
1822,2025-03-07 11:05:35.322,594.0
1823,2025-03-07 11:05:35.372,404.0
1824,2025-03-07 11:05:35.422,543.0
1825,2025-03-07 11:05:35.472,737.0
1826,2025-03-07 11:05:35.522,935.0
1827,2025-03-07 11:05:35.573,874.0
1828,2025-03-07 11:05:35.623,935.0
1829,2025-03-07 11:05:35.674,936.0
1830,2025-03-07 11:05:35.724,936.0
1831,2025-03-07 11:05:35.774,936.0
1832,2025-03-07 11:05:35.824,825.0
1833,2025-03-07 11:05:35.875,772.0
1834,2025-03-07 11:05:35.925,935.0
1835,2025-03-07 11:05:35.975,936.0
1836,2025-03-07 11:05:36.026,936.0
1837,2025-03-07 11:05:36.076,935.0
1838,2025-03-07 11:05:36.126,935.0
1839,2025-03-07 11:05:36.176,935.0
1840,2025-03-07 11:05:36.226,910.0
1841,2025-03-07 11:05:36.277,935.0
1842,2025-03-07 11:05:36.327,936.0
1843,2025-03-07 11:05:36.377,936.0
1844,2025-03-07 11:05:36.428,936.0
1845,2025-03-07 11:05:36.478,936.0
1846,2025-03-07 11:05:36.528,936.0
1847,2025-03-07 11:05:36.579,936.0
1848,2025-03-07 11:05:36.629,936.0
1849,2025-03-07 11:05:36.679,936.0
1850,2025-03-07 11:05:36.730,930.0
1851,2025-03-07 11:05:36.780,936.0
1852,2025-03-07 11:05:36.830,936.0
1853,2025-03-07 11:05:36.880,936.0
1854,2025-03-07 11:05:36.932,936.0
1855,2025-03-07 11:05:36.981,936.0
1856,2025-03-07 11:05:37.031,936.0
1857,2025-03-07 11:05:37.081,936.0
1858,2025-03-07 11:05:37.132,937.0
1859,2025-03-07 11:05:37.182,936.0
1860,2025-03-07 11:05:37.232,936.0
1861,2025-03-07 11:05:37.283,936.0
1862,2025-03-07 11:05:37.333,936.0
1863,2025-03-07 11:05:37.383,936.0
1864,2025-03-07 11:05:37.433,936.0
1865,2025-03-07 11:05:37.484,936.0
1866,2025-03-07 11:05:37.534,936.0
1867,2025-03-07 11:05:37.584,936.0
1868,2025-03-07 11:05:37.634,936.0
1869,2025-03-07 11:05:37.685,937.0
1870,2025-03-07 11:05:37.735,936.0
1871,2025-03-07 11:05:37.785,936.0
1872,2025-03-07 11:05:37.836,936.0
1873,2025-03-07 11:05:37.886,936.0
1874,2025-03-07 11:05:37.936,937.0
1875,2025-03-07 11:05:37.987,936.0
1876,2025-03-07 11:05:38.037,936.0
1877,2025-03-07 11:05:38.087,937.0
1878,2025-03-07 11:05:38.137,936.0
1879,2025-03-07 11:05:38.188,936.0
1880,2025-03-07 11:05:38.238,936.0
1881,2025-03-07 11:05:38.288,937.0
1882,2025-03-07 11:05:38.339,937.0
1883,2025-03-07 11:05:38.389,936.0
1884,2025-03-07 11:05:38.439,937.0
1885,2025-03-07 11:05:38.489,936.0
1886,2025-03-07 11:05:38.540,936.0
1887,2025-03-07 11:05:38.590,936.0
1888,2025-03-07 11:05:38.640,936.0
1889,2025-03-07 11:05:38.690,936.0
1890,2025-03-07 11:05:38.741,936.0
1891,2025-03-07 11:05:38.791,936.0
1892,2025-03-07 11:05:38.841,937.0
1893,2025-03-07 11:05:38.892,936.0
1894,2025-03-07 11:05:38.942,936.0
1895,2025-03-07 11:05:38.992,937.0
1896,2025-03-07 11:05:39.042,937.0
1897,2025-03-07 11:05:39.093,937.0
1898,2025-03-07 11:05:39.143,936.0
1899,2025-03-07 11:05:39.193,936.0
1900,2025-03-07 11:05:39.243,936.0
1901,2025-03-07 11:05:39.294,936.0
1902,2025-03-07 11:05:39.344,936.0
1903,2025-03-07 11:05:39.394,936.0
1904,2025-03-07 11:05:39.445,936.0
1905,2025-03-07 11:05:39.495,937.0
1906,2025-03-07 11:05:39.545,936.0
1907,2025-03-07 11:05:39.595,936.0
1908,2025-03-07 11:05:39.645,936.0
1909,2025-03-07 11:05:39.696,936.0
1910,2025-03-07 11:05:39.746,936.0
1911,2025-03-07 11:05:39.796,936.0
1912,2025-03-07 11:05:39.847,937.0
1913,2025-03-07 11:05:39.897,936.0
1914,2025-03-07 11:05:39.947,936.0
1915,2025-03-07 11:05:39.998,936.0
1916,2025-03-07 11:05:40.048,936.0
1917,2025-03-07 11:05:40.098,936.0
1918,2025-03-07 11:05:40.148,936.0
1919,2025-03-07 11:05:40.198,936.0
1920,2025-03-07 11:05:40.249,936.0
1921,2025-03-07 11:05:40.299,936.0
1922,2025-03-07 11:05:40.349,936.0
1923,2025-03-07 11:05:40.400,936.0
1924,2025-03-07 11:05:40.450,936.0
1925,2025-03-07 11:05:40.500,936.0
1926,2025-03-07 11:05:40.551,936.0
1927,2025-03-07 11:05:40.601,936.0
1928,2025-03-07 11:05:40.651,937.0
1929,2025-03-07 11:05:40.702,936.0
1930,2025-03-07 11:05:40.752,936.0
1931,2025-03-07 11:05:40.802,936.0
1932,2025-03-07 11:05:40.853,937.0
1933,2025-03-07 11:05:40.903,937.0
1934,2025-03-07 11:05:40.953,937.0
1935,2025-03-07 11:05:41.003,936.0
1936,2025-03-07 11:05:41.053,937.0
1937,2025-03-07 11:05:41.104,936.0
1938,2025-03-07 11:05:41.154,936.0
1939,2025-03-07 11:05:41.204,937.0
1940,2025-03-07 11:05:41.255,936.0
1941,2025-03-07 11:05:41.305,937.0
1942,2025-03-07 11:05:41.355,936.0
1943,2025-03-07 11:05:41.406,936.0
1944,2025-03-07 11:05:41.456,936.0
1945,2025-03-07 11:05:41.506,936.0
1946,2025-03-07 11:05:41.556,936.0
1947,2025-03-07 11:05:41.607,937.0
1948,2025-03-07 11:05:41.657,936.0
1949,2025-03-07 11:05:41.707,936.0
1950,2025-03-07 11:05:41.758,937.0
1951,2025-03-07 11:05:41.808,937.0
1952,2025-03-07 11:05:41.858,937.0
1953,2025-03-07 11:05:41.908,936.0
1954,2025-03-07 11:05:41.959,936.0
1955,2025-03-07 11:05:42.009,936.0
1956,2025-03-07 11:05:42.059,936.0
1957,2025-03-07 11:05:42.110,936.0
1958,2025-03-07 11:05:42.160,936.0
1959,2025-03-07 11:05:42.210,937.0
1960,2025-03-07 11:05:42.260,936.0
1961,2025-03-07 11:05:42.311,936.0
1962,2025-03-07 11:05:42.361,936.0
1963,2025-03-07 11:05:42.411,936.0
1964,2025-03-07 11:05:42.461,937.0
1965,2025-03-07 11:05:42.512,936.0
1966,2025-03-07 11:05:42.562,937.0
1967,2025-03-07 11:05:42.612,936.0
1968,2025-03-07 11:05:42.663,936.0
1969,2025-03-07 11:05:42.713,936.0
1970,2025-03-07 11:05:42.763,936.0
1971,2025-03-07 11:05:42.814,936.0
1972,2025-03-07 11:05:42.864,937.0
1973,2025-03-07 11:05:42.914,936.0
1974,2025-03-07 11:05:42.964,936.0
1975,2025-03-07 11:05:43.015,936.0
1976,2025-03-07 11:05:43.065,936.0
1977,2025-03-07 11:05:43.115,936.0
1978,2025-03-07 11:05:43.165,937.0
1979,2025-03-07 11:05:43.216,936.0
1980,2025-03-07 11:05:43.266,937.0
1981,2025-03-07 11:05:43.316,937.0
1982,2025-03-07 11:05:43.367,936.0
1983,2025-03-07 11:05:43.417,936.0
1984,2025-03-07 11:05:43.467,937.0
1985,2025-03-07 11:05:43.517,936.0
1986,2025-03-07 11:05:43.568,937.0
1987,2025-03-07 11:05:43.618,936.0
1988,2025-03-07 11:05:43.668,936.0
1989,2025-03-07 11:05:43.719,936.0
1990,2025-03-07 11:05:43.769,937.0
1991,2025-03-07 11:05:43.819,936.0
1992,2025-03-07 11:05:43.869,937.0
1993,2025-03-07 11:05:43.920,936.0
1994,2025-03-07 11:05:43.970,936.0
1995,2025-03-07 11:05:44.020,936.0
1996,2025-03-07 11:05:44.070,936.0
1997,2025-03-07 11:05:44.121,936.0
1998,2025-03-07 11:05:44.171,936.0
1999,2025-03-07 11:05:44.221,936.0
2000,2025-03-07 11:05:44.272,936.0
2001,2025-03-07 11:05:44.322,936.0
2002,2025-03-07 11:05:44.372,937.0
2003,2025-03-07 11:05:44.422,936.0
2004,2025-03-07 11:05:44.473,936.0
2005,2025-03-07 11:05:44.523,936.0
2006,2025-03-07 11:05:44.573,937.0
2007,2025-03-07 11:05:44.624,937.0
2008,2025-03-07 11:05:44.674,936.0
2009,2025-03-07 11:05:44.724,937.0
2010,2025-03-07 11:05:44.774,936.0
2011,2025-03-07 11:05:44.825,936.0
2012,2025-03-07 11:05:44.875,936.0
2013,2025-03-07 11:05:44.925,936.0
2014,2025-03-07 11:05:44.976,936.0
2015,2025-03-07 11:05:45.026,936.0
2016,2025-03-07 11:05:45.076,936.0
2017,2025-03-07 11:05:45.127,936.0
2018,2025-03-07 11:05:45.177,936.0
2019,2025-03-07 11:05:45.227,936.0
2020,2025-03-07 11:05:45.277,937.0
2021,2025-03-07 11:05:45.327,936.0
2022,2025-03-07 11:05:45.378,936.0
2023,2025-03-07 11:05:45.428,936.0
2024,2025-03-07 11:05:45.478,936.0
2025,2025-03-07 11:05:45.529,936.0
2026,2025-03-07 11:05:45.579,936.0
2027,2025-03-07 11:05:45.629,936.0
2028,2025-03-07 11:05:45.680,937.0
2029,2025-03-07 11:05:45.730,936.0
2030,2025-03-07 11:05:45.780,936.0
2031,2025-03-07 11:05:45.830,936.0
2032,2025-03-07 11:05:45.881,936.0
2033,2025-03-07 11:05:45.931,937.0
2034,2025-03-07 11:05:45.981,936.0
2035,2025-03-07 11:05:46.032,936.0
2036,2025-03-07 11:05:46.082,936.0
2037,2025-03-07 11:05:46.132,936.0
2038,2025-03-07 11:05:46.182,937.0
2039,2025-03-07 11:05:46.233,937.0
2040,2025-03-07 11:05:46.283,936.0
2041,2025-03-07 11:05:46.333,937.0
2042,2025-03-07 11:05:46.383,937.0
2043,2025-03-07 11:05:46.434,936.0
2044,2025-03-07 11:05:46.484,936.0
2045,2025-03-07 11:05:46.534,936.0
2046,2025-03-07 11:05:46.585,937.0
2047,2025-03-07 11:05:46.635,936.0
2048,2025-03-07 11:05:46.685,936.0
2049,2025-03-07 11:05:46.735,936.0
2050,2025-03-07 11:05:46.786,936.0
2051,2025-03-07 11:05:46.836,936.0
2052,2025-03-07 11:05:46.886,936.0
2053,2025-03-07 11:05:46.937,937.0
2054,2025-03-07 11:05:46.987,936.0
2055,2025-03-07 11:05:47.037,936.0
2056,2025-03-07 11:05:47.087,936.0
2057,2025-03-07 11:05:47.138,937.0
2058,2025-03-07 11:05:47.188,936.0
2059,2025-03-07 11:05:47.238,936.0
2060,2025-03-07 11:05:47.289,936.0
2061,2025-03-07 11:05:47.339,937.0
2062,2025-03-07 11:05:47.389,937.0
2063,2025-03-07 11:05:47.439,937.0
2064,2025-03-07 11:05:47.490,936.0
2065,2025-03-07 11:05:47.540,937.0
2066,2025-03-07 11:05:47.590,937.0
2067,2025-03-07 11:05:47.641,936.0
2068,2025-03-07 11:05:47.691,936.0
2069,2025-03-07 11:05:47.741,936.0
2070,2025-03-07 11:05:47.791,936.0
2071,2025-03-07 11:05:47.842,937.0
2072,2025-03-07 11:05:47.892,937.0
2073,2025-03-07 11:05:47.942,936.0
2074,2025-03-07 11:05:47.993,936.0
2075,2025-03-07 11:05:48.043,936.0
2076,2025-03-07 11:05:48.093,937.0
2077,2025-03-07 11:05:48.143,936.0
2078,2025-03-07 11:05:48.194,937.0
2079,2025-03-07 11:05:48.244,936.0
2080,2025-03-07 11:05:48.294,936.0
2081,2025-03-07 11:05:48.344,936.0
2082,2025-03-07 11:05:48.395,937.0
2083,2025-03-07 11:05:48.445,936.0
2084,2025-03-07 11:05:48.495,936.0
2085,2025-03-07 11:05:48.546,936.0
2086,2025-03-07 11:05:48.596,936.0
2087,2025-03-07 11:05:48.646,936.0
2088,2025-03-07 11:05:48.696,936.0
2089,2025-03-07 11:05:48.747,936.0
2090,2025-03-07 11:05:48.797,936.0
2091,2025-03-07 11:05:48.847,936.0
2092,2025-03-07 11:05:48.897,937.0
2093,2025-03-07 11:05:48.948,936.0
2094,2025-03-07 11:05:48.998,936.0
2095,2025-03-07 11:05:49.048,936.0
2096,2025-03-07 11:05:49.099,935.0
2097,2025-03-07 11:05:49.149,935.0
2098,2025-03-07 11:05:49.199,359.0
2099,2025-03-07 11:05:49.249,127.0
2100,2025-03-07 11:05:49.299,74.0
2101,2025-03-07 11:05:49.350,496.0
2102,2025-03-07 11:05:49.400,936.0
2103,2025-03-07 11:05:49.451,936.0
2104,2025-03-07 11:05:49.501,936.0
2105,2025-03-07 11:05:49.551,936.0
2106,2025-03-07 11:05:49.601,935.0
2107,2025-03-07 11:05:49.652,901.0
2108,2025-03-07 11:05:49.702,936.0
2109,2025-03-07 11:05:49.752,936.0
2110,2025-03-07 11:05:49.803,936.0
2111,2025-03-07 11:05:49.853,866.0
2112,2025-03-07 11:05:49.903,776.0
2113,2025-03-07 11:05:49.953,936.0
2114,2025-03-07 11:05:50.004,936.0
2115,2025-03-07 11:05:50.054,936.0
2116,2025-03-07 11:05:50.104,936.0
2117,2025-03-07 11:05:50.155,936.0
2118,2025-03-07 11:05:50.205,936.0
2119,2025-03-07 11:05:50.255,936.0
2120,2025-03-07 11:05:50.305,936.0
2121,2025-03-07 11:05:50.356,936.0
2122,2025-03-07 11:05:50.406,936.0
2123,2025-03-07 11:05:50.456,936.0
2124,2025-03-07 11:05:50.506,935.0
2125,2025-03-07 11:05:50.557,681.0
2126,2025-03-07 11:05:50.607,768.0
2127,2025-03-07 11:05:50.657,905.0
2128,2025-03-07 11:05:50.708,935.0
2129,2025-03-07 11:05:50.758,935.0
2130,2025-03-07 11:05:50.808,927.0
2131,2025-03-07 11:05:50.859,936.0
2132,2025-03-07 11:05:50.909,936.0
2133,2025-03-07 11:05:50.959,937.0
2134,2025-03-07 11:05:51.009,936.0
2135,2025-03-07 11:05:51.060,936.0
2136,2025-03-07 11:05:51.110,936.0
2137,2025-03-07 11:05:51.160,936.0
2138,2025-03-07 11:05:51.211,936.0
2139,2025-03-07 11:05:51.261,936.0
2140,2025-03-07 11:05:51.311,937.0
2141,2025-03-07 11:05:51.361,936.0
2142,2025-03-07 11:05:51.411,936.0
2143,2025-03-07 11:05:51.462,936.0
2144,2025-03-07 11:05:51.512,936.0
2145,2025-03-07 11:05:51.562,936.0
2146,2025-03-07 11:05:51.613,936.0
2147,2025-03-07 11:05:51.663,936.0
2148,2025-03-07 11:05:51.713,936.0
2149,2025-03-07 11:05:51.764,936.0
2150,2025-03-07 11:05:51.814,936.0
2151,2025-03-07 11:05:51.864,936.0
2152,2025-03-07 11:05:51.914,936.0
2153,2025-03-07 11:05:51.965,936.0
2154,2025-03-07 11:05:52.015,936.0
2155,2025-03-07 11:05:52.065,936.0
2156,2025-03-07 11:05:52.115,936.0
2157,2025-03-07 11:05:52.166,936.0
2158,2025-03-07 11:05:52.216,936.0
2159,2025-03-07 11:05:52.266,936.0
2160,2025-03-07 11:05:52.317,698.0
2161,2025-03-07 11:05:52.367,614.0
2162,2025-03-07 11:05:52.417,854.0
2163,2025-03-07 11:05:52.468,842.0
2164,2025-03-07 11:05:52.518,936.0
2165,2025-03-07 11:05:52.568,936.0
2166,2025-03-07 11:05:52.618,936.0
2167,2025-03-07 11:05:52.669,936.0
2168,2025-03-07 11:05:52.719,937.0
2169,2025-03-07 11:05:52.769,936.0
2170,2025-03-07 11:05:52.819,936.0
2171,2025-03-07 11:05:52.870,936.0
2172,2025-03-07 11:05:52.920,936.0
2173,2025-03-07 11:05:52.970,936.0
2174,2025-03-07 11:05:53.020,936.0
2175,2025-03-07 11:05:53.071,936.0
2176,2025-03-07 11:05:53.121,936.0
2177,2025-03-07 11:05:53.172,936.0
2178,2025-03-07 11:05:53.222,936.0
2179,2025-03-07 11:05:53.272,936.0
2180,2025-03-07 11:05:53.322,936.0
2181,2025-03-07 11:05:53.373,936.0
2182,2025-03-07 11:05:53.423,936.0
2183,2025-03-07 11:05:53.473,936.0
2184,2025-03-07 11:05:53.523,935.0
2185,2025-03-07 11:05:53.574,936.0
2186,2025-03-07 11:05:53.624,936.0
2187,2025-03-07 11:05:53.674,936.0
2188,2025-03-07 11:05:53.725,936.0
2189,2025-03-07 11:05:53.775,936.0
2190,2025-03-07 11:05:53.825,936.0
2191,2025-03-07 11:05:53.876,936.0
2192,2025-03-07 11:05:53.926,936.0
2193,2025-03-07 11:05:53.976,936.0
2194,2025-03-07 11:05:54.026,936.0
2195,2025-03-07 11:05:54.076,936.0
2196,2025-03-07 11:05:54.127,936.0
2197,2025-03-07 11:05:54.177,936.0
2198,2025-03-07 11:05:54.227,936.0
2199,2025-03-07 11:05:54.278,937.0
2200,2025-03-07 11:05:54.328,936.0
2201,2025-03-07 11:05:54.378,936.0
2202,2025-03-07 11:05:54.428,936.0
2203,2025-03-07 11:05:54.479,936.0
2204,2025-03-07 11:05:54.529,936.0
2205,2025-03-07 11:05:54.579,936.0
2206,2025-03-07 11:05:54.630,936.0
2207,2025-03-07 11:05:54.680,936.0
2208,2025-03-07 11:05:54.730,936.0
2209,2025-03-07 11:05:54.781,937.0
2210,2025-03-07 11:05:54.831,936.0
2211,2025-03-07 11:05:54.881,936.0
2212,2025-03-07 11:05:54.931,936.0
2213,2025-03-07 11:05:54.982,936.0
2214,2025-03-07 11:05:55.032,936.0
2215,2025-03-07 11:05:55.082,936.0
2216,2025-03-07 11:05:55.132,936.0
2217,2025-03-07 11:05:55.183,936.0
2218,2025-03-07 11:05:55.233,936.0
2219,2025-03-07 11:05:55.283,936.0
2220,2025-03-07 11:05:55.334,936.0
2221,2025-03-07 11:05:55.384,936.0
2222,2025-03-07 11:05:55.434,936.0
2223,2025-03-07 11:05:55.485,936.0
2224,2025-03-07 11:05:55.535,936.0
2225,2025-03-07 11:05:55.585,936.0
2226,2025-03-07 11:05:55.635,936.0
2227,2025-03-07 11:05:55.685,936.0
2228,2025-03-07 11:05:55.736,936.0
2229,2025-03-07 11:05:55.786,936.0
2230,2025-03-07 11:05:55.836,936.0
2231,2025-03-07 11:05:55.887,936.0
2232,2025-03-07 11:05:55.937,936.0
2233,2025-03-07 11:05:55.987,936.0
2234,2025-03-07 11:05:56.037,936.0
2235,2025-03-07 11:05:56.088,936.0
2236,2025-03-07 11:05:56.138,936.0
2237,2025-03-07 11:05:56.189,936.0
2238,2025-03-07 11:05:56.239,936.0
2239,2025-03-07 11:05:56.289,936.0
2240,2025-03-07 11:05:56.339,563.0
2241,2025-03-07 11:05:56.389,262.0
2242,2025-03-07 11:05:56.440,155.0
2243,2025-03-07 11:05:56.490,533.0
2244,2025-03-07 11:05:56.540,935.0
2245,2025-03-07 11:05:56.591,807.0
2246,2025-03-07 11:05:56.641,628.0
2247,2025-03-07 11:05:56.691,459.0
2248,2025-03-07 11:05:56.742,834.0
2249,2025-03-07 11:05:56.792,935.0
2250,2025-03-07 11:05:56.842,859.0
2251,2025-03-07 11:05:56.892,859.0
2252,2025-03-07 11:05:56.943,936.0
2253,2025-03-07 11:05:56.993,936.0
2254,2025-03-07 11:05:57.043,936.0
2255,2025-03-07 11:05:57.093,936.0
2256,2025-03-07 11:05:57.144,936.0
2257,2025-03-07 11:05:57.194,936.0
2258,2025-03-07 11:05:57.244,936.0
2259,2025-03-07 11:05:57.294,936.0
2260,2025-03-07 11:05:57.345,936.0
2261,2025-03-07 11:05:57.395,937.0
2262,2025-03-07 11:05:57.445,936.0
2263,2025-03-07 11:05:57.496,936.0
2264,2025-03-07 11:05:57.546,936.0
2265,2025-03-07 11:05:57.596,936.0
2266,2025-03-07 11:05:57.646,936.0
2267,2025-03-07 11:05:57.697,936.0
2268,2025-03-07 11:05:57.747,936.0
2269,2025-03-07 11:05:57.797,936.0
2270,2025-03-07 11:05:57.847,936.0
2271,2025-03-07 11:05:57.898,936.0
2272,2025-03-07 11:05:57.948,936.0
2273,2025-03-07 11:05:57.998,936.0
2274,2025-03-07 11:05:58.049,937.0
2275,2025-03-07 11:05:58.099,936.0
2276,2025-03-07 11:05:58.149,936.0
2277,2025-03-07 11:05:58.199,936.0
2278,2025-03-07 11:05:58.250,936.0
2279,2025-03-07 11:05:58.300,936.0
2280,2025-03-07 11:05:58.350,936.0
2281,2025-03-07 11:05:58.401,936.0
2282,2025-03-07 11:05:58.451,936.0
2283,2025-03-07 11:05:58.501,936.0
2284,2025-03-07 11:05:58.551,936.0
2285,2025-03-07 11:05:58.602,936.0
2286,2025-03-07 11:05:58.652,936.0
2287,2025-03-07 11:05:58.702,936.0
2288,2025-03-07 11:05:58.753,936.0
2289,2025-03-07 11:05:58.803,936.0
2290,2025-03-07 11:05:58.853,936.0
2291,2025-03-07 11:05:58.904,936.0
2292,2025-03-07 11:05:58.954,936.0
2293,2025-03-07 11:05:59.004,936.0
2294,2025-03-07 11:05:59.054,936.0
2295,2025-03-07 11:05:59.105,936.0
2296,2025-03-07 11:05:59.155,936.0
2297,2025-03-07 11:05:59.205,936.0
2298,2025-03-07 11:05:59.255,936.0
2299,2025-03-07 11:05:59.306,936.0
2300,2025-03-07 11:05:59.356,936.0
2301,2025-03-07 11:05:59.406,936.0
2302,2025-03-07 11:05:59.457,936.0
2303,2025-03-07 11:05:59.507,936.0
2304,2025-03-07 11:05:59.557,936.0
2305,2025-03-07 11:05:59.607,936.0
2306,2025-03-07 11:05:59.658,936.0
2307,2025-03-07 11:05:59.708,936.0
2308,2025-03-07 11:05:59.758,937.0
2309,2025-03-07 11:05:59.809,936.0
2310,2025-03-07 11:05:59.859,936.0
2311,2025-03-07 11:05:59.909,936.0
2312,2025-03-07 11:05:59.960,936.0
2313,2025-03-07 11:06:00.010,936.0
2314,2025-03-07 11:06:00.060,936.0
2315,2025-03-07 11:06:00.110,936.0
2316,2025-03-07 11:06:00.161,936.0
2317,2025-03-07 11:06:00.211,936.0
2318,2025-03-07 11:06:00.261,936.0
2319,2025-03-07 11:06:00.311,936.0
2320,2025-03-07 11:06:00.362,936.0
2321,2025-03-07 11:06:00.412,936.0
2322,2025-03-07 11:06:00.462,936.0
2323,2025-03-07 11:06:00.513,936.0
2324,2025-03-07 11:06:00.563,936.0
2325,2025-03-07 11:06:00.613,936.0
2326,2025-03-07 11:06:00.663,937.0
2327,2025-03-07 11:06:00.714,936.0
2328,2025-03-07 11:06:00.764,936.0
2329,2025-03-07 11:06:00.814,936.0
2330,2025-03-07 11:06:00.864,936.0
2331,2025-03-07 11:06:00.915,936.0
2332,2025-03-07 11:06:00.965,936.0
2333,2025-03-07 11:06:01.015,936.0
2334,2025-03-07 11:06:01.066,936.0
2335,2025-03-07 11:06:01.116,936.0
2336,2025-03-07 11:06:01.166,936.0
2337,2025-03-07 11:06:01.217,936.0
2338,2025-03-07 11:06:01.267,936.0
2339,2025-03-07 11:06:01.317,937.0
2340,2025-03-07 11:06:01.367,936.0
2341,2025-03-07 11:06:01.417,936.0
2342,2025-03-07 11:06:01.468,936.0
2343,2025-03-07 11:06:01.518,936.0
2344,2025-03-07 11:06:01.569,936.0
2345,2025-03-07 11:06:01.619,936.0
2346,2025-03-07 11:06:01.669,936.0
2347,2025-03-07 11:06:01.720,936.0
2348,2025-03-07 11:06:01.770,936.0
2349,2025-03-07 11:06:01.820,937.0
2350,2025-03-07 11:06:01.870,936.0
2351,2025-03-07 11:06:01.920,936.0
2352,2025-03-07 11:06:01.971,936.0
2353,2025-03-07 11:06:02.021,936.0
2354,2025-03-07 11:06:02.071,936.0
2355,2025-03-07 11:06:02.121,936.0
2356,2025-03-07 11:06:02.172,936.0
2357,2025-03-07 11:06:02.222,936.0
2358,2025-03-07 11:06:02.272,937.0
2359,2025-03-07 11:06:02.323,937.0
2360,2025-03-07 11:06:02.373,936.0
2361,2025-03-07 11:06:02.423,936.0
2362,2025-03-07 11:06:02.474,936.0
2363,2025-03-07 11:06:02.524,936.0
2364,2025-03-07 11:06:02.574,936.0
2365,2025-03-07 11:06:02.624,936.0
2366,2025-03-07 11:06:02.675,936.0
2367,2025-03-07 11:06:02.725,936.0
2368,2025-03-07 11:06:02.775,936.0
2369,2025-03-07 11:06:02.826,936.0
2370,2025-03-07 11:06:02.876,936.0
2371,2025-03-07 11:06:02.926,936.0
2372,2025-03-07 11:06:02.976,936.0
2373,2025-03-07 11:06:03.027,936.0
2374,2025-03-07 11:06:03.077,936.0
2375,2025-03-07 11:06:03.127,936.0
2376,2025-03-07 11:06:03.178,936.0
2377,2025-03-07 11:06:03.228,936.0
2378,2025-03-07 11:06:03.278,936.0
2379,2025-03-07 11:06:03.328,936.0
2380,2025-03-07 11:06:03.379,936.0
2381,2025-03-07 11:06:03.429,936.0
2382,2025-03-07 11:06:03.479,936.0
2383,2025-03-07 11:06:03.530,936.0
2384,2025-03-07 11:06:03.580,936.0
2385,2025-03-07 11:06:03.630,936.0
2386,2025-03-07 11:06:03.680,936.0
2387,2025-03-07 11:06:03.731,936.0
2388,2025-03-07 11:06:03.781,936.0
2389,2025-03-07 11:06:03.831,936.0
2390,2025-03-07 11:06:03.881,936.0
2391,2025-03-07 11:06:03.932,936.0
2392,2025-03-07 11:06:03.982,936.0
2393,2025-03-07 11:06:04.032,936.0
2394,2025-03-07 11:06:04.083,936.0
2395,2025-03-07 11:06:04.133,936.0
2396,2025-03-07 11:06:04.183,937.0
2397,2025-03-07 11:06:04.234,936.0
2398,2025-03-07 11:06:04.284,936.0
2399,2025-03-07 11:06:04.334,936.0
2400,2025-03-07 11:06:04.384,936.0
2401,2025-03-07 11:06:04.435,936.0
2402,2025-03-07 11:06:04.485,936.0
2403,2025-03-07 11:06:04.535,936.0
2404,2025-03-07 11:06:04.585,936.0
2405,2025-03-07 11:06:04.636,936.0
2406,2025-03-07 11:06:04.686,936.0
2407,2025-03-07 11:06:04.736,936.0
2408,2025-03-07 11:06:04.787,936.0
2409,2025-03-07 11:06:04.837,936.0
2410,2025-03-07 11:06:04.887,936.0
2411,2025-03-07 11:06:04.937,936.0
2412,2025-03-07 11:06:04.988,936.0
2413,2025-03-07 11:06:05.038,936.0
2414,2025-03-07 11:06:05.088,936.0
2415,2025-03-07 11:06:05.138,936.0
2416,2025-03-07 11:06:05.189,936.0
2417,2025-03-07 11:06:05.239,936.0
2418,2025-03-07 11:06:05.289,936.0
2419,2025-03-07 11:06:05.340,936.0
2420,2025-03-07 11:06:05.390,936.0
2421,2025-03-07 11:06:05.440,936.0
2422,2025-03-07 11:06:05.491,936.0
2423,2025-03-07 11:06:05.541,936.0
2424,2025-03-07 11:06:05.591,936.0
2425,2025-03-07 11:06:05.641,936.0
2426,2025-03-07 11:06:05.692,936.0
2427,2025-03-07 11:06:05.742,936.0
2428,2025-03-07 11:06:05.792,936.0
2429,2025-03-07 11:06:05.842,936.0
2430,2025-03-07 11:06:05.893,937.0
2431,2025-03-07 11:06:05.943,936.0
2432,2025-03-07 11:06:05.993,936.0
2433,2025-03-07 11:06:06.043,936.0
2434,2025-03-07 11:06:06.094,936.0
2435,2025-03-07 11:06:06.144,936.0
2436,2025-03-07 11:06:06.194,936.0
2437,2025-03-07 11:06:06.245,936.0
2438,2025-03-07 11:06:06.295,936.0
2439,2025-03-07 11:06:06.345,936.0
2440,2025-03-07 11:06:06.396,936.0
2441,2025-03-07 11:06:06.446,936.0
2442,2025-03-07 11:06:06.496,937.0
2443,2025-03-07 11:06:06.546,936.0
2444,2025-03-07 11:06:06.596,936.0
2445,2025-03-07 11:06:06.647,936.0
2446,2025-03-07 11:06:06.697,936.0
2447,2025-03-07 11:06:06.747,936.0
2448,2025-03-07 11:06:06.797,936.0
2449,2025-03-07 11:06:06.848,936.0
2450,2025-03-07 11:06:06.898,936.0
2451,2025-03-07 11:06:06.948,936.0
2452,2025-03-07 11:06:06.999,936.0
2453,2025-03-07 11:06:07.049,936.0
2454,2025-03-07 11:06:07.099,936.0
2455,2025-03-07 11:06:07.150,936.0
2456,2025-03-07 11:06:07.200,936.0
2457,2025-03-07 11:06:07.250,936.0
2458,2025-03-07 11:06:07.301,936.0
2459,2025-03-07 11:06:07.351,936.0
2460,2025-03-07 11:06:07.401,936.0
2461,2025-03-07 11:06:07.451,936.0
2462,2025-03-07 11:06:07.502,936.0
2463,2025-03-07 11:06:07.552,936.0
2464,2025-03-07 11:06:07.602,936.0
2465,2025-03-07 11:06:07.652,936.0
2466,2025-03-07 11:06:07.703,936.0
2467,2025-03-07 11:06:07.753,936.0
2468,2025-03-07 11:06:07.803,936.0
2469,2025-03-07 11:06:07.854,936.0
2470,2025-03-07 11:06:07.904,936.0
2471,2025-03-07 11:06:07.954,936.0
2472,2025-03-07 11:06:08.004,936.0
2473,2025-03-07 11:06:08.055,936.0
2474,2025-03-07 11:06:08.105,936.0
2475,2025-03-07 11:06:08.155,937.0
2476,2025-03-07 11:06:08.206,936.0
2477,2025-03-07 11:06:08.256,936.0
2478,2025-03-07 11:06:08.306,936.0
2479,2025-03-07 11:06:08.356,936.0
2480,2025-03-07 11:06:08.407,936.0
2481,2025-03-07 11:06:08.457,936.0
2482,2025-03-07 11:06:08.507,936.0
2483,2025-03-07 11:06:08.558,936.0
2484,2025-03-07 11:06:08.608,936.0
2485,2025-03-07 11:06:08.658,936.0
2486,2025-03-07 11:06:08.708,936.0
2487,2025-03-07 11:06:08.759,937.0
2488,2025-03-07 11:06:08.809,936.0
2489,2025-03-07 11:06:08.859,936.0
2490,2025-03-07 11:06:08.910,936.0
2491,2025-03-07 11:06:08.960,936.0
2492,2025-03-07 11:06:09.010,936.0
2493,2025-03-07 11:06:09.060,936.0
2494,2025-03-07 11:06:09.111,936.0
2495,2025-03-07 11:06:09.161,936.0
2496,2025-03-07 11:06:09.211,936.0
2497,2025-03-07 11:06:09.262,936.0
2498,2025-03-07 11:06:09.312,936.0
2499,2025-03-07 11:06:09.362,936.0
2500,2025-03-07 11:06:09.412,936.0
2501,2025-03-07 11:06:09.463,936.0
2502,2025-03-07 11:06:09.513,936.0
2503,2025-03-07 11:06:09.563,936.0
2504,2025-03-07 11:06:09.613,936.0
2505,2025-03-07 11:06:09.664,936.0
2506,2025-03-07 11:06:09.714,936.0
2507,2025-03-07 11:06:09.764,936.0
2508,2025-03-07 11:06:09.815,936.0
2509,2025-03-07 11:06:09.865,936.0
2510,2025-03-07 11:06:09.915,936.0
2511,2025-03-07 11:06:09.966,936.0
2512,2025-03-07 11:06:10.016,936.0
2513,2025-03-07 11:06:10.066,936.0
2514,2025-03-07 11:06:10.116,936.0
2515,2025-03-07 11:06:10.166,936.0
2516,2025-03-07 11:06:10.217,936.0
2517,2025-03-07 11:06:10.267,936.0
2518,2025-03-07 11:06:10.317,937.0
2519,2025-03-07 11:06:10.368,936.0
2520,2025-03-07 11:06:10.418,936.0
2521,2025-03-07 11:06:10.468,936.0
2522,2025-03-07 11:06:10.519,936.0
2523,2025-03-07 11:06:10.569,936.0
2524,2025-03-07 11:06:10.619,936.0
2525,2025-03-07 11:06:10.669,936.0
2526,2025-03-07 11:06:10.719,936.0
2527,2025-03-07 11:06:10.770,936.0
2528,2025-03-07 11:06:10.820,936.0
2529,2025-03-07 11:06:10.870,936.0
2530,2025-03-07 11:06:10.921,936.0
2531,2025-03-07 11:06:10.971,936.0
2532,2025-03-07 11:06:11.021,936.0
2533,2025-03-07 11:06:11.072,936.0
2534,2025-03-07 11:06:11.122,936.0
2535,2025-03-07 11:06:11.172,936.0
2536,2025-03-07 11:06:11.223,936.0
2537,2025-03-07 11:06:11.273,936.0
2538,2025-03-07 11:06:11.323,936.0
2539,2025-03-07 11:06:11.373,936.0
2540,2025-03-07 11:06:11.424,937.0
2541,2025-03-07 11:06:11.474,936.0
2542,2025-03-07 11:06:11.524,936.0
2543,2025-03-07 11:06:11.574,936.0
2544,2025-03-07 11:06:11.625,936.0
2545,2025-03-07 11:06:11.675,936.0
2546,2025-03-07 11:06:11.725,936.0
2547,2025-03-07 11:06:11.776,936.0
2548,2025-03-07 11:06:11.826,936.0
2549,2025-03-07 11:06:11.876,936.0
2550,2025-03-07 11:06:11.927,936.0
2551,2025-03-07 11:06:11.977,936.0
2552,2025-03-07 11:06:12.027,936.0
2553,2025-03-07 11:06:12.078,936.0
2554,2025-03-07 11:06:12.128,936.0
2555,2025-03-07 11:06:12.178,936.0
2556,2025-03-07 11:06:12.228,936.0
2557,2025-03-07 11:06:12.279,936.0
2558,2025-03-07 11:06:12.329,936.0
2559,2025-03-07 11:06:12.379,936.0
2560,2025-03-07 11:06:12.429,936.0
2561,2025-03-07 11:06:12.480,936.0
2562,2025-03-07 11:06:12.530,936.0
2563,2025-03-07 11:06:12.580,936.0
2564,2025-03-07 11:06:12.631,936.0
2565,2025-03-07 11:06:12.681,936.0
2566,2025-03-07 11:06:12.731,936.0
2567,2025-03-07 11:06:12.781,936.0
2568,2025-03-07 11:06:12.832,936.0
2569,2025-03-07 11:06:12.882,936.0
2570,2025-03-07 11:06:12.932,936.0
2571,2025-03-07 11:06:12.982,937.0
2572,2025-03-07 11:06:13.033,936.0
2573,2025-03-07 11:06:13.083,936.0
2574,2025-03-07 11:06:13.133,936.0
2575,2025-03-07 11:06:13.184,936.0
2576,2025-03-07 11:06:13.234,937.0
2577,2025-03-07 11:06:13.284,936.0
2578,2025-03-07 11:06:13.334,194.0
2579,2025-03-07 11:06:13.384,42.0
2580,2025-03-07 11:06:13.435,14.0
2581,2025-03-07 11:06:13.485,4.0
2582,2025-03-07 11:06:13.535,1.0
2583,2025-03-07 11:06:13.585,0.0
2584,2025-03-07 11:06:13.636,0.0
2585,2025-03-07 11:06:13.686,0.0
2586,2025-03-07 11:06:13.736,0.0
2587,2025-03-07 11:06:13.786,0.0
2588,2025-03-07 11:06:13.836,0.0
2589,2025-03-07 11:06:13.886,0.0
2590,2025-03-07 11:06:13.937,0.0
2591,2025-03-07 11:06:13.987,0.0
2592,2025-03-07 11:06:14.037,0.0
2593,2025-03-07 11:06:14.087,0.0
2594,2025-03-07 11:06:14.137,0.0
2595,2025-03-07 11:06:14.188,0.0
2596,2025-03-07 11:06:14.238,0.0
2597,2025-03-07 11:06:14.288,0.0
2598,2025-03-07 11:06:14.338,0.0
2599,2025-03-07 11:06:14.388,0.0
2600,2025-03-07 11:06:14.438,0.0
2601,2025-03-07 11:06:14.489,0.0
2602,2025-03-07 11:06:14.539,0.0
2603,2025-03-07 11:06:14.589,0.0
2604,2025-03-07 11:06:14.639,0.0
2605,2025-03-07 11:06:14.690,0.0
2606,2025-03-07 11:06:14.740,0.0
2607,2025-03-07 11:06:14.790,0.0
2608,2025-03-07 11:06:14.840,0.0
2609,2025-03-07 11:06:14.890,0.0
2610,2025-03-07 11:06:14.940,0.0
2611,2025-03-07 11:06:14.991,0.0
2612,2025-03-07 11:06:15.041,0.0
2613,2025-03-07 11:06:15.091,0.0
2614,2025-03-07 11:06:15.141,0.0
2615,2025-03-07 11:06:15.191,0.0
2616,2025-03-07 11:06:15.242,0.0
2617,2025-03-07 11:06:15.292,0.0
2618,2025-03-07 11:06:15.342,0.0
2619,2025-03-07 11:06:15.392,0.0
2620,2025-03-07 11:06:15.442,0.0
2621,2025-03-07 11:06:15.493,0.0
2622,2025-03-07 11:06:15.543,0.0
2623,2025-03-07 11:06:15.593,0.0
2624,2025-03-07 11:06:15.643,0.0
2625,2025-03-07 11:06:15.693,0.0
2626,2025-03-07 11:06:15.744,0.0
2627,2025-03-07 11:06:15.794,0.0
2628,2025-03-07 11:06:15.844,0.0
2629,2025-03-07 11:06:15.894,0.0
2630,2025-03-07 11:06:15.944,0.0
2631,2025-03-07 11:06:15.995,0.0
2632,2025-03-07 11:06:16.045,0.0
2633,2025-03-07 11:06:16.095,0.0
2634,2025-03-07 11:06:16.145,0.0
2635,2025-03-07 11:06:16.195,0.0
2636,2025-03-07 11:06:16.245,0.0
2637,2025-03-07 11:06:16.296,0.0
2638,2025-03-07 11:06:16.346,4.0
2639,2025-03-07 11:06:16.396,2.0
2640,2025-03-07 11:06:16.446,2.0
2641,2025-03-07 11:06:16.496,6.0
2642,2025-03-07 11:06:16.546,0.0
2643,2025-03-07 11:06:16.597,0.0
2644,2025-03-07 11:06:16.647,0.0
2645,2025-03-07 11:06:16.697,0.0
2646,2025-03-07 11:06:16.747,0.0
2647,2025-03-07 11:06:16.797,0.0
2648,2025-03-07 11:06:16.847,0.0
2649,2025-03-07 11:06:16.898,0.0
2650,2025-03-07 11:06:16.948,0.0
2651,2025-03-07 11:06:16.998,0.0
2652,2025-03-07 11:06:17.049,0.0
2653,2025-03-07 11:06:17.099,0.0
2654,2025-03-07 11:06:17.149,0.0
2655,2025-03-07 11:06:17.199,0.0
2656,2025-03-07 11:06:17.249,0.0
2657,2025-03-07 11:06:17.299,0.0
2658,2025-03-07 11:06:17.350,0.0
2659,2025-03-07 11:06:17.400,0.0
2660,2025-03-07 11:06:17.450,0.0
2661,2025-03-07 11:06:17.500,0.0
2662,2025-03-07 11:06:17.550,0.0
2663,2025-03-07 11:06:17.601,0.0
2664,2025-03-07 11:06:17.651,0.0
2665,2025-03-07 11:06:17.701,0.0
2666,2025-03-07 11:06:17.751,0.0
2667,2025-03-07 11:06:17.801,0.0
2668,2025-03-07 11:06:17.852,0.0
2669,2025-03-07 11:06:17.902,0.0
2670,2025-03-07 11:06:17.952,0.0
2671,2025-03-07 11:06:18.002,0.0
2672,2025-03-07 11:06:18.053,0.0
2673,2025-03-07 11:06:18.103,0.0
2674,2025-03-07 11:06:18.153,0.0
2675,2025-03-07 11:06:18.203,0.0
2676,2025-03-07 11:06:18.253,0.0
2677,2025-03-07 11:06:18.304,0.0
2678,2025-03-07 11:06:18.354,0.0
2679,2025-03-07 11:06:18.404,0.0
2680,2025-03-07 11:06:18.454,0.0
2681,2025-03-07 11:06:18.504,0.0
2682,2025-03-07 11:06:18.554,0.0
2683,2025-03-07 11:06:18.604,0.0
2684,2025-03-07 11:06:18.655,0.0
2685,2025-03-07 11:06:18.705,0.0
2686,2025-03-07 11:06:18.755,0.0
2687,2025-03-07 11:06:18.806,507.0
2688,2025-03-07 11:06:18.856,411.0
2689,2025-03-07 11:06:18.906,781.0
2690,2025-03-07 11:06:18.957,625.0
2691,2025-03-07 11:06:19.007,598.0
2692,2025-03-07 11:06:19.057,413.0
2693,2025-03-07 11:06:19.107,542.0
2694,2025-03-07 11:06:19.158,511.0
2695,2025-03-07 11:06:19.208,486.0
2696,2025-03-07 11:06:19.258,481.0
2697,2025-03-07 11:06:19.309,499.0
2698,2025-03-07 11:06:19.359,439.0
2699,2025-03-07 11:06:19.409,592.0
2700,2025-03-07 11:06:19.459,625.0
2701,2025-03-07 11:06:19.510,520.0
2702,2025-03-07 11:06:19.560,413.0
2703,2025-03-07 11:06:19.610,611.0
2704,2025-03-07 11:06:19.661,606.0
2705,2025-03-07 11:06:19.711,506.0
2706,2025-03-07 11:06:19.761,568.0
2707,2025-03-07 11:06:19.811,597.0
2708,2025-03-07 11:06:19.862,519.0
2709,2025-03-07 11:06:19.912,554.0
2710,2025-03-07 11:06:19.962,455.0
2711,2025-03-07 11:06:20.013,535.0
2712,2025-03-07 11:06:20.063,480.0
2713,2025-03-07 11:06:20.113,540.0
2714,2025-03-07 11:06:20.163,532.0
2715,2025-03-07 11:06:20.213,577.0
2716,2025-03-07 11:06:20.264,531.0
2717,2025-03-07 11:06:20.314,538.0
2718,2025-03-07 11:06:20.364,534.0
2719,2025-03-07 11:06:20.415,485.0
2720,2025-03-07 11:06:20.465,527.0
2721,2025-03-07 11:06:20.515,534.0
2722,2025-03-07 11:06:20.566,436.0
2723,2025-03-07 11:06:20.616,511.0
2724,2025-03-07 11:06:20.666,528.0
2725,2025-03-07 11:06:20.716,550.0
2726,2025-03-07 11:06:20.767,507.0
2727,2025-03-07 11:06:20.817,526.0
2728,2025-03-07 11:06:20.867,528.0
2729,2025-03-07 11:06:20.917,437.0
2730,2025-03-07 11:06:20.968,370.0
2731,2025-03-07 11:06:21.018,427.0
2732,2025-03-07 11:06:21.069,483.0
2733,2025-03-07 11:06:21.119,534.0
2734,2025-03-07 11:06:21.169,435.0
2735,2025-03-07 11:06:21.219,545.0
2736,2025-03-07 11:06:21.269,498.0
2737,2025-03-07 11:06:21.320,523.0
2738,2025-03-07 11:06:21.370,522.0
2739,2025-03-07 11:06:21.420,491.0
2740,2025-03-07 11:06:21.471,527.0
2741,2025-03-07 11:06:21.521,500.0
2742,2025-03-07 11:06:21.571,529.0
2743,2025-03-07 11:06:21.622,546.0
2744,2025-03-07 11:06:21.672,546.0
2745,2025-03-07 11:06:21.722,490.0
2746,2025-03-07 11:06:21.772,518.0
2747,2025-03-07 11:06:21.823,517.0
2748,2025-03-07 11:06:21.873,394.0
2749,2025-03-07 11:06:21.923,532.0
2750,2025-03-07 11:06:21.973,549.0
2751,2025-03-07 11:06:22.024,543.0
2752,2025-03-07 11:06:22.074,547.0
2753,2025-03-07 11:06:22.124,492.0
2754,2025-03-07 11:06:22.175,524.0
2755,2025-03-07 11:06:22.225,519.0
2756,2025-03-07 11:06:22.275,550.0
2757,2025-03-07 11:06:22.325,532.0
2758,2025-03-07 11:06:22.376,500.0
2759,2025-03-07 11:06:22.426,535.0
2760,2025-03-07 11:06:22.476,542.0
2761,2025-03-07 11:06:22.527,533.0
2762,2025-03-07 11:06:22.577,529.0
2763,2025-03-07 11:06:22.627,533.0
2764,2025-03-07 11:06:22.677,478.0
2765,2025-03-07 11:06:22.728,533.0
2766,2025-03-07 11:06:22.778,496.0
2767,2025-03-07 11:06:22.828,535.0
2768,2025-03-07 11:06:22.879,419.0
2769,2025-03-07 11:06:22.929,535.0
2770,2025-03-07 11:06:22.979,509.0
2771,2025-03-07 11:06:23.029,539.0
2772,2025-03-07 11:06:23.080,539.0
2773,2025-03-07 11:06:23.130,497.0
2774,2025-03-07 11:06:23.180,473.0
2775,2025-03-07 11:06:23.230,513.0
2776,2025-03-07 11:06:23.281,539.0
2777,2025-03-07 11:06:23.331,537.0
2778,2025-03-07 11:06:23.381,536.0
2779,2025-03-07 11:06:23.432,538.0
2780,2025-03-07 11:06:23.482,559.0
2781,2025-03-07 11:06:23.532,562.0
2782,2025-03-07 11:06:23.583,545.0
2783,2025-03-07 11:06:23.633,559.0
2784,2025-03-07 11:06:23.683,508.0
2785,2025-03-07 11:06:23.733,425.0
2786,2025-03-07 11:06:23.784,547.0
2787,2025-03-07 11:06:23.834,531.0
2788,2025-03-07 11:06:23.884,480.0
2789,2025-03-07 11:06:23.934,539.0
2790,2025-03-07 11:06:23.985,551.0
2791,2025-03-07 11:06:24.035,535.0
2792,2025-03-07 11:06:24.085,551.0
2793,2025-03-07 11:06:24.136,430.0
2794,2025-03-07 11:06:24.186,550.0
2795,2025-03-07 11:06:24.236,524.0
2796,2025-03-07 11:06:24.286,470.0
2797,2025-03-07 11:06:24.337,474.0
2798,2025-03-07 11:06:24.387,519.0
2799,2025-03-07 11:06:24.437,510.0
2800,2025-03-07 11:06:24.487,539.0
2801,2025-03-07 11:06:24.538,529.0
2802,2025-03-07 11:06:24.588,491.0
2803,2025-03-07 11:06:24.638,546.0
2804,2025-03-07 11:06:24.689,538.0
2805,2025-03-07 11:06:24.739,526.0
2806,2025-03-07 11:06:24.789,475.0
2807,2025-03-07 11:06:24.839,425.0
2808,2025-03-07 11:06:24.890,534.0
2809,2025-03-07 11:06:24.940,527.0
2810,2025-03-07 11:06:24.990,486.0
2811,2025-03-07 11:06:25.041,512.0
2812,2025-03-07 11:06:25.091,546.0
2813,2025-03-07 11:06:25.141,538.0
2814,2025-03-07 11:06:25.192,540.0
2815,2025-03-07 11:06:25.242,532.0
2816,2025-03-07 11:06:25.292,446.0
2817,2025-03-07 11:06:25.342,528.0
2818,2025-03-07 11:06:25.393,280.0
2819,2025-03-07 11:06:25.443,539.0
2820,2025-03-07 11:06:25.493,509.0
2821,2025-03-07 11:06:25.543,540.0
2822,2025-03-07 11:06:25.594,535.0
2823,2025-03-07 11:06:25.644,519.0
2824,2025-03-07 11:06:25.694,532.0
2825,2025-03-07 11:06:25.745,551.0
2826,2025-03-07 11:06:25.795,538.0
2827,2025-03-07 11:06:25.845,402.0
2828,2025-03-07 11:06:25.895,446.0
2829,2025-03-07 11:06:25.946,286.0
2830,2025-03-07 11:06:25.996,547.0
2831,2025-03-07 11:06:26.046,535.0
2832,2025-03-07 11:06:26.096,485.0
2833,2025-03-07 11:06:26.147,437.0
2834,2025-03-07 11:06:26.197,548.0
2835,2025-03-07 11:06:26.247,533.0
2836,2025-03-07 11:06:26.297,489.0
2837,2025-03-07 11:06:26.348,550.0
2838,2025-03-07 11:06:26.398,541.0
2839,2025-03-07 11:06:26.448,522.0
2840,2025-03-07 11:06:26.498,535.0
2841,2025-03-07 11:06:26.549,534.0
2842,2025-03-07 11:06:26.599,369.0
2843,2025-03-07 11:06:26.649,527.0
2844,2025-03-07 11:06:26.700,385.0
2845,2025-03-07 11:06:26.750,503.0
2846,2025-03-07 11:06:26.800,479.0
2847,2025-03-07 11:06:26.851,536.0
2848,2025-03-07 11:06:26.901,538.0
2849,2025-03-07 11:06:26.951,558.0
2850,2025-03-07 11:06:27.002,537.0
2851,2025-03-07 11:06:27.052,530.0
2852,2025-03-07 11:06:27.102,530.0
2853,2025-03-07 11:06:27.152,529.0
2854,2025-03-07 11:06:27.203,501.0
2855,2025-03-07 11:06:27.253,436.0
2856,2025-03-07 11:06:27.303,437.0
2857,2025-03-07 11:06:27.354,576.0
2858,2025-03-07 11:06:27.404,459.0
2859,2025-03-07 11:06:27.454,531.0
2860,2025-03-07 11:06:27.504,534.0
2861,2025-03-07 11:06:27.555,558.0
2862,2025-03-07 11:06:27.605,527.0
2863,2025-03-07 11:06:27.655,549.0
2864,2025-03-07 11:06:27.706,539.0
2865,2025-03-07 11:06:27.756,414.0
2866,2025-03-07 11:06:27.806,390.0
2867,2025-03-07 11:06:27.856,406.0
2868,2025-03-07 11:06:27.907,453.0
2869,2025-03-07 11:06:27.957,546.0
2870,2025-03-07 11:06:28.007,335.0
2871,2025-03-07 11:06:28.058,551.0
2872,2025-03-07 11:06:28.108,329.0
2873,2025-03-07 11:06:28.158,536.0
2874,2025-03-07 11:06:28.209,549.0
2875,2025-03-07 11:06:28.259,538.0
2876,2025-03-07 11:06:28.309,486.0
2877,2025-03-07 11:06:28.359,545.0
2878,2025-03-07 11:06:28.410,534.0
2879,2025-03-07 11:06:28.460,530.0
2880,2025-03-07 11:06:28.510,553.0
2881,2025-03-07 11:06:28.561,325.0
2882,2025-03-07 11:06:28.611,566.0
2883,2025-03-07 11:06:28.661,432.0
2884,2025-03-07 11:06:28.711,532.0
2885,2025-03-07 11:06:28.761,533.0
2886,2025-03-07 11:06:28.812,537.0
2887,2025-03-07 11:06:28.862,501.0
2888,2025-03-07 11:06:28.912,389.0
2889,2025-03-07 11:06:28.963,543.0
2890,2025-03-07 11:06:29.013,552.0
2891,2025-03-07 11:06:29.063,535.0
2892,2025-03-07 11:06:29.113,547.0
2893,2025-03-07 11:06:29.164,404.0
2894,2025-03-07 11:06:29.214,490.0
2895,2025-03-07 11:06:29.264,544.0
2896,2025-03-07 11:06:29.314,494.0
2897,2025-03-07 11:06:29.365,533.0
2898,2025-03-07 11:06:29.415,532.0
2899,2025-03-07 11:06:29.465,509.0
2900,2025-03-07 11:06:29.516,435.0
2901,2025-03-07 11:06:29.566,537.0
2902,2025-03-07 11:06:29.616,407.0
2903,2025-03-07 11:06:29.667,466.0
2904,2025-03-07 11:06:29.717,524.0
2905,2025-03-07 11:06:29.767,484.0
2906,2025-03-07 11:06:29.817,517.0
2907,2025-03-07 11:06:29.868,558.0
2908,2025-03-07 11:06:29.918,548.0
2909,2025-03-07 11:06:29.968,517.0
2910,2025-03-07 11:06:30.019,517.0
2911,2025-03-07 11:06:30.069,478.0
2912,2025-03-07 11:06:30.119,548.0
2913,2025-03-07 11:06:30.169,534.0
2914,2025-03-07 11:06:30.220,522.0
2915,2025-03-07 11:06:30.270,493.0
2916,2025-03-07 11:06:30.320,483.0
2917,2025-03-07 11:06:30.370,550.0
2918,2025-03-07 11:06:30.421,478.0
2919,2025-03-07 11:06:30.471,536.0
2920,2025-03-07 11:06:30.521,454.0
2921,2025-03-07 11:06:30.572,527.0
2922,2025-03-07 11:06:30.622,531.0
2923,2025-03-07 11:06:30.672,545.0
2924,2025-03-07 11:06:30.723,471.0
2925,2025-03-07 11:06:30.773,553.0
2926,2025-03-07 11:06:30.823,528.0
2927,2025-03-07 11:06:30.873,555.0
2928,2025-03-07 11:06:30.924,550.0
2929,2025-03-07 11:06:30.974,564.0
2930,2025-03-07 11:06:31.024,507.0
2931,2025-03-07 11:06:31.075,518.0
2932,2025-03-07 11:06:31.125,565.0
2933,2025-03-07 11:06:31.175,541.0
2934,2025-03-07 11:06:31.225,521.0
2935,2025-03-07 11:06:31.276,529.0
2936,2025-03-07 11:06:31.326,547.0
2937,2025-03-07 11:06:31.376,523.0
2938,2025-03-07 11:06:31.427,516.0
2939,2025-03-07 11:06:31.477,534.0
2940,2025-03-07 11:06:31.527,540.0
2941,2025-03-07 11:06:31.577,432.0
2942,2025-03-07 11:06:31.627,545.0
2943,2025-03-07 11:06:31.678,546.0
2944,2025-03-07 11:06:31.728,483.0
2945,2025-03-07 11:06:31.778,491.0
2946,2025-03-07 11:06:31.829,491.0
2947,2025-03-07 11:06:31.879,560.0
2948,2025-03-07 11:06:31.929,556.0
2949,2025-03-07 11:06:31.980,391.0
2950,2025-03-07 11:06:32.030,546.0
2951,2025-03-07 11:06:32.080,538.0
2952,2025-03-07 11:06:32.130,443.0
2953,2025-03-07 11:06:32.181,542.0
2954,2025-03-07 11:06:32.231,547.0
2955,2025-03-07 11:06:32.281,411.0
2956,2025-03-07 11:06:32.332,458.0
2957,2025-03-07 11:06:32.382,447.0
2958,2025-03-07 11:06:32.432,544.0
2959,2025-03-07 11:06:32.482,518.0
2960,2025-03-07 11:06:32.533,547.0
2961,2025-03-07 11:06:32.583,534.0
2962,2025-03-07 11:06:32.633,538.0
2963,2025-03-07 11:06:32.684,529.0
2964,2025-03-07 11:06:32.734,460.0
2965,2025-03-07 11:06:32.784,532.0
2966,2025-03-07 11:06:32.834,377.0
2967,2025-03-07 11:06:32.885,381.0
2968,2025-03-07 11:06:32.935,547.0
2969,2025-03-07 11:06:32.985,538.0
2970,2025-03-07 11:06:33.035,513.0
2971,2025-03-07 11:06:33.086,502.0
2972,2025-03-07 11:06:33.136,536.0
2973,2025-03-07 11:06:33.186,527.0
2974,2025-03-07 11:06:33.237,538.0
2975,2025-03-07 11:06:33.287,542.0
2976,2025-03-07 11:06:33.337,512.0
2977,2025-03-07 11:06:33.387,510.0
2978,2025-03-07 11:06:33.438,464.0
2979,2025-03-07 11:06:33.488,503.0
2980,2025-03-07 11:06:33.538,537.0
2981,2025-03-07 11:06:33.589,541.0
2982,2025-03-07 11:06:33.639,550.0
2983,2025-03-07 11:06:33.689,439.0
2984,2025-03-07 11:06:33.740,552.0
2985,2025-03-07 11:06:33.790,524.0
2986,2025-03-07 11:06:33.840,542.0
2987,2025-03-07 11:06:33.890,447.0
2988,2025-03-07 11:06:33.941,536.0
2989,2025-03-07 11:06:33.991,439.0
2990,2025-03-07 11:06:34.041,392.0
2991,2025-03-07 11:06:34.091,497.0
2992,2025-03-07 11:06:34.142,538.0
2993,2025-03-07 11:06:34.192,539.0
2994,2025-03-07 11:06:34.242,538.0
2995,2025-03-07 11:06:34.293,443.0
2996,2025-03-07 11:06:34.343,536.0
2997,2025-03-07 11:06:34.393,532.0
2998,2025-03-07 11:06:34.443,531.0
2999,2025-03-07 11:06:34.494,522.0
3000,2025-03-07 11:06:34.544,421.0
3001,2025-03-07 11:06:34.594,450.0
3002,2025-03-07 11:06:34.645,491.0
3003,2025-03-07 11:06:34.695,539.0
3004,2025-03-07 11:06:34.745,531.0
3005,2025-03-07 11:06:34.795,531.0
3006,2025-03-07 11:06:34.846,532.0
3007,2025-03-07 11:06:34.896,530.0
3008,2025-03-07 11:06:34.946,483.0
3009,2025-03-07 11:06:34.996,439.0
3010,2025-03-07 11:06:35.047,558.0
3011,2025-03-07 11:06:35.097,559.0
3012,2025-03-07 11:06:35.147,535.0
3013,2025-03-07 11:06:35.197,514.0
3014,2025-03-07 11:06:35.248,537.0
3015,2025-03-07 11:06:35.298,551.0
3016,2025-03-07 11:06:35.348,527.0
3017,2025-03-07 11:06:35.398,540.0
3018,2025-03-07 11:06:35.449,550.0
3019,2025-03-07 11:06:35.499,454.0
3020,2025-03-07 11:06:35.549,551.0
3021,2025-03-07 11:06:35.600,549.0
3022,2025-03-07 11:06:35.650,487.0
3023,2025-03-07 11:06:35.700,552.0
3024,2025-03-07 11:06:35.751,542.0
3025,2025-03-07 11:06:35.801,462.0
3026,2025-03-07 11:06:35.851,530.0
3027,2025-03-07 11:06:35.901,540.0
3028,2025-03-07 11:06:35.952,494.0
3029,2025-03-07 11:06:36.002,536.0
3030,2025-03-07 11:06:36.052,537.0
3031,2025-03-07 11:06:36.103,390.0
3032,2025-03-07 11:06:36.153,541.0
3033,2025-03-07 11:06:36.203,343.0
3034,2025-03-07 11:06:36.253,472.0
3035,2025-03-07 11:06:36.304,536.0
3036,2025-03-07 11:06:36.354,519.0
3037,2025-03-07 11:06:36.404,560.0
3038,2025-03-07 11:06:36.454,521.0
3039,2025-03-07 11:06:36.505,547.0
3040,2025-03-07 11:06:36.555,544.0
3041,2025-03-07 11:06:36.606,525.0
3042,2025-03-07 11:06:36.656,446.0
3043,2025-03-07 11:06:36.706,529.0
3044,2025-03-07 11:06:36.756,540.0
3045,2025-03-07 11:06:36.807,526.0
3046,2025-03-07 11:06:36.857,375.0
3047,2025-03-07 11:06:36.907,476.0
3048,2025-03-07 11:06:36.957,428.0
3049,2025-03-07 11:06:37.008,506.0
3050,2025-03-07 11:06:37.058,450.0
3051,2025-03-07 11:06:37.108,495.0
3052,2025-03-07 11:06:37.159,522.0
3053,2025-03-07 11:06:37.209,534.0
3054,2025-03-07 11:06:37.259,507.0
3055,2025-03-07 11:06:37.309,543.0
3056,2025-03-07 11:06:37.360,527.0
3057,2025-03-07 11:06:37.410,487.0
3058,2025-03-07 11:06:37.460,517.0
3059,2025-03-07 11:06:37.511,475.0
3060,2025-03-07 11:06:37.561,524.0
3061,2025-03-07 11:06:37.611,515.0
3062,2025-03-07 11:06:37.661,554.0
3063,2025-03-07 11:06:37.712,561.0
3064,2025-03-07 11:06:37.762,556.0
3065,2025-03-07 11:06:37.812,539.0
3066,2025-03-07 11:06:37.863,437.0
3067,2025-03-07 11:06:37.913,355.0
3068,2025-03-07 11:06:37.963,509.0
3069,2025-03-07 11:06:38.013,523.0
3070,2025-03-07 11:06:38.064,513.0
3071,2025-03-07 11:06:38.114,438.0
3072,2025-03-07 11:06:38.164,522.0
3073,2025-03-07 11:06:38.214,557.0
3074,2025-03-07 11:06:38.265,522.0
3075,2025-03-07 11:06:38.315,533.0
3076,2025-03-07 11:06:38.365,515.0
3077,2025-03-07 11:06:38.416,540.0
3078,2025-03-07 11:06:38.466,492.0
3079,2025-03-07 11:06:38.516,546.0
3080,2025-03-07 11:06:38.566,496.0
3081,2025-03-07 11:06:38.617,514.0
3082,2025-03-07 11:06:38.667,444.0
3083,2025-03-07 11:06:38.717,539.0
3084,2025-03-07 11:06:38.768,549.0
3085,2025-03-07 11:06:38.818,561.0
3086,2025-03-07 11:06:38.868,333.0
3087,2025-03-07 11:06:38.918,466.0
3088,2025-03-07 11:06:38.969,528.0
3089,2025-03-07 11:06:39.019,516.0
3090,2025-03-07 11:06:39.069,449.0
3091,2025-03-07 11:06:39.120,524.0
3092,2025-03-07 11:06:39.170,538.0
3093,2025-03-07 11:06:39.220,546.0
3094,2025-03-07 11:06:39.270,500.0
3095,2025-03-07 11:06:39.321,489.0
3096,2025-03-07 11:06:39.371,422.0
3097,2025-03-07 11:06:39.421,471.0
3098,2025-03-07 11:06:39.472,478.0
3099,2025-03-07 11:06:39.522,545.0
3100,2025-03-07 11:06:39.572,431.0
3101,2025-03-07 11:06:39.622,558.0
3102,2025-03-07 11:06:39.673,550.0
3103,2025-03-07 11:06:39.723,512.0
3104,2025-03-07 11:06:39.773,515.0
3105,2025-03-07 11:06:39.824,516.0
3106,2025-03-07 11:06:39.874,527.0
3107,2025-03-07 11:06:39.924,547.0
3108,2025-03-07 11:06:39.974,546.0
3109,2025-03-07 11:06:40.025,476.0
3110,2025-03-07 11:06:40.075,413.0
3111,2025-03-07 11:06:40.125,395.0
3112,2025-03-07 11:06:40.175,541.0
3113,2025-03-07 11:06:40.226,513.0
3114,2025-03-07 11:06:40.276,524.0
3115,2025-03-07 11:06:40.326,453.0
3116,2025-03-07 11:06:40.377,398.0
3117,2025-03-07 11:06:40.427,522.0
3118,2025-03-07 11:06:40.477,399.0
3119,2025-03-07 11:06:40.527,493.0
3120,2025-03-07 11:06:40.578,525.0
3121,2025-03-07 11:06:40.628,559.0
3122,2025-03-07 11:06:40.678,428.0
3123,2025-03-07 11:06:40.729,445.0
3124,2025-03-07 11:06:40.779,505.0
3125,2025-03-07 11:06:40.829,300.0
3126,2025-03-07 11:06:40.879,522.0
3127,2025-03-07 11:06:40.930,574.0
3128,2025-03-07 11:06:40.980,571.0
3129,2025-03-07 11:06:41.030,451.0
3130,2025-03-07 11:06:41.081,534.0
3131,2025-03-07 11:06:41.131,555.0
3132,2025-03-07 11:06:41.181,580.0
3133,2025-03-07 11:06:41.231,439.0
3134,2025-03-07 11:06:41.282,340.0
3135,2025-03-07 11:06:41.332,421.0
3136,2025-03-07 11:06:41.382,461.0
3137,2025-03-07 11:06:41.433,486.0
3138,2025-03-07 11:06:41.483,566.0
3139,2025-03-07 11:06:41.533,488.0
3140,2025-03-07 11:06:41.584,538.0
3141,2025-03-07 11:06:41.634,531.0
3142,2025-03-07 11:06:41.684,564.0
3143,2025-03-07 11:06:41.734,527.0
3144,2025-03-07 11:06:41.785,539.0
3145,2025-03-07 11:06:41.835,539.0
3146,2025-03-07 11:06:41.885,401.0
3147,2025-03-07 11:06:41.935,464.0
3148,2025-03-07 11:06:41.986,536.0
3149,2025-03-07 11:06:42.036,493.0
3150,2025-03-07 11:06:42.086,540.0
3151,2025-03-07 11:06:42.137,486.0
3152,2025-03-07 11:06:42.187,548.0
3153,2025-03-07 11:06:42.237,413.0
3154,2025-03-07 11:06:42.287,522.0
3155,2025-03-07 11:06:42.338,505.0
3156,2025-03-07 11:06:42.388,536.0
3157,2025-03-07 11:06:42.438,548.0
3158,2025-03-07 11:06:42.488,520.0
3159,2025-03-07 11:06:42.539,416.0
3160,2025-03-07 11:06:42.589,527.0
3161,2025-03-07 11:06:42.639,534.0
3162,2025-03-07 11:06:42.690,532.0
3163,2025-03-07 11:06:42.740,503.0
3164,2025-03-07 11:06:42.790,554.0
3165,2025-03-07 11:06:42.840,539.0
3166,2025-03-07 11:06:42.891,514.0
3167,2025-03-07 11:06:42.941,336.0
3168,2025-03-07 11:06:42.991,519.0
3169,2025-03-07 11:06:43.042,531.0
3170,2025-03-07 11:06:43.092,547.0
3171,2025-03-07 11:06:43.142,524.0
3172,2025-03-07 11:06:43.192,461.0
3173,2025-03-07 11:06:43.243,540.0
3174,2025-03-07 11:06:43.293,546.0
3175,2025-03-07 11:06:43.343,527.0
3176,2025-03-07 11:06:43.393,530.0
3177,2025-03-07 11:06:43.444,547.0
3178,2025-03-07 11:06:43.494,483.0
3179,2025-03-07 11:06:43.544,501.0
3180,2025-03-07 11:06:43.595,522.0
3181,2025-03-07 11:06:43.645,523.0
3182,2025-03-07 11:06:43.695,542.0
3183,2025-03-07 11:06:43.745,524.0
3184,2025-03-07 11:06:43.796,542.0
3185,2025-03-07 11:06:43.846,519.0
3186,2025-03-07 11:06:43.896,541.0
3187,2025-03-07 11:06:43.946,516.0
3188,2025-03-07 11:06:43.997,508.0
3189,2025-03-07 11:06:44.047,543.0
3190,2025-03-07 11:06:44.097,432.0
3191,2025-03-07 11:06:44.148,570.0
3192,2025-03-07 11:06:44.198,545.0
3193,2025-03-07 11:06:44.248,470.0
3194,2025-03-07 11:06:44.298,545.0
3195,2025-03-07 11:06:44.349,544.0
3196,2025-03-07 11:06:44.399,549.0
3197,2025-03-07 11:06:44.449,560.0
3198,2025-03-07 11:06:44.499,546.0
3199,2025-03-07 11:06:44.550,532.0
3200,2025-03-07 11:06:44.600,542.0
3201,2025-03-07 11:06:44.650,536.0
3202,2025-03-07 11:06:44.701,279.0
3203,2025-03-07 11:06:44.751,374.0
3204,2025-03-07 11:06:44.801,557.0
3205,2025-03-07 11:06:44.852,536.0
3206,2025-03-07 11:06:44.902,516.0
3207,2025-03-07 11:06:44.952,317.0
3208,2025-03-07 11:06:45.003,501.0
3209,2025-03-07 11:06:45.053,566.0
3210,2025-03-07 11:06:45.103,557.0
3211,2025-03-07 11:06:45.153,555.0
3212,2025-03-07 11:06:45.204,571.0
3213,2025-03-07 11:06:45.254,506.0
3214,2025-03-07 11:06:45.304,555.0
3215,2025-03-07 11:06:45.354,560.0
3216,2025-03-07 11:06:45.405,536.0
3217,2025-03-07 11:06:45.455,430.0
3218,2025-03-07 11:06:45.505,496.0
3219,2025-03-07 11:06:45.556,558.0
3220,2025-03-07 11:06:45.606,566.0
3221,2025-03-07 11:06:45.656,431.0
3222,2025-03-07 11:06:45.706,449.0
3223,2025-03-07 11:06:45.757,416.0
3224,2025-03-07 11:06:45.807,538.0
3225,2025-03-07 11:06:45.857,459.0
3226,2025-03-07 11:06:45.908,541.0
3227,2025-03-07 11:06:45.958,555.0
3228,2025-03-07 11:06:46.008,549.0
3229,2025-03-07 11:06:46.058,548.0
3230,2025-03-07 11:06:46.109,521.0
3231,2025-03-07 11:06:46.159,557.0
3232,2025-03-07 11:06:46.209,538.0
3233,2025-03-07 11:06:46.260,508.0
3234,2025-03-07 11:06:46.310,547.0
3235,2025-03-07 11:06:46.360,552.0
3236,2025-03-07 11:06:46.410,550.0
3237,2025-03-07 11:06:46.461,475.0
3238,2025-03-07 11:06:46.511,545.0
3239,2025-03-07 11:06:46.561,538.0
3240,2025-03-07 11:06:46.612,463.0
3241,2025-03-07 11:06:46.662,472.0
3242,2025-03-07 11:06:46.712,447.0
3243,2025-03-07 11:06:46.762,504.0
3244,2025-03-07 11:06:46.813,444.0
3245,2025-03-07 11:06:46.863,517.0
3246,2025-03-07 11:06:46.913,532.0
3247,2025-03-07 11:06:46.964,464.0
3248,2025-03-07 11:06:47.014,519.0
3249,2025-03-07 11:06:47.064,548.0
3250,2025-03-07 11:06:47.114,392.0
3251,2025-03-07 11:06:47.165,539.0
3252,2025-03-07 11:06:47.215,548.0
3253,2025-03-07 11:06:47.265,537.0
3254,2025-03-07 11:06:47.315,440.0
3255,2025-03-07 11:06:47.366,536.0
3256,2025-03-07 11:06:47.416,508.0
3257,2025-03-07 11:06:47.466,538.0
3258,2025-03-07 11:06:47.517,549.0
3259,2025-03-07 11:06:47.567,553.0
3260,2025-03-07 11:06:47.617,535.0
3261,2025-03-07 11:06:47.667,552.0
3262,2025-03-07 11:06:47.718,445.0
3263,2025-03-07 11:06:47.768,506.0
3264,2025-03-07 11:06:47.818,502.0
3265,2025-03-07 11:06:47.869,493.0
3266,2025-03-07 11:06:47.919,536.0
3267,2025-03-07 11:06:47.969,543.0
3268,2025-03-07 11:06:48.019,518.0
3269,2025-03-07 11:06:48.070,498.0
3270,2025-03-07 11:06:48.120,513.0
3271,2025-03-07 11:06:48.170,548.0
3272,2025-03-07 11:06:48.220,536.0
3273,2025-03-07 11:06:48.271,538.0
3274,2025-03-07 11:06:48.321,540.0
3275,2025-03-07 11:06:48.371,524.0
3276,2025-03-07 11:06:48.422,448.0
3277,2025-03-07 11:06:48.472,551.0
3278,2025-03-07 11:06:48.522,529.0
3279,2025-03-07 11:06:48.573,539.0
3280,2025-03-07 11:06:48.623,530.0
3281,2025-03-07 11:06:48.673,473.0
3282,2025-03-07 11:06:48.724,537.0
3283,2025-03-07 11:06:48.774,541.0
3284,2025-03-07 11:06:48.824,514.0
3285,2025-03-07 11:06:48.874,510.0
3286,2025-03-07 11:06:48.924,469.0
3287,2025-03-07 11:06:48.975,530.0
3288,2025-03-07 11:06:49.025,519.0
3289,2025-03-07 11:06:49.079,528.0
3290,2025-03-07 11:06:49.126,532.0
3291,2025-03-07 11:06:49.176,481.0
3292,2025-03-07 11:06:49.226,480.0
3293,2025-03-07 11:06:49.277,513.0
3294,2025-03-07 11:06:49.327,540.0
3295,2025-03-07 11:06:49.377,539.0
3296,2025-03-07 11:06:49.428,525.0
3297,2025-03-07 11:06:49.478,534.0
3298,2025-03-07 11:06:49.528,537.0
3299,2025-03-07 11:06:49.578,544.0
3300,2025-03-07 11:06:49.629,415.0
3301,2025-03-07 11:06:49.679,535.0
3302,2025-03-07 11:06:49.729,526.0
3303,2025-03-07 11:06:49.779,511.0
3304,2025-03-07 11:06:49.830,511.0
3305,2025-03-07 11:06:49.880,511.0
3306,2025-03-07 11:06:49.930,511.0
3307,2025-03-07 11:06:49.981,511.0
3308,2025-03-07 11:06:50.031,511.0
3309,2025-03-07 11:06:50.081,511.0
3310,2025-03-07 11:06:50.131,511.0
3311,2025-03-07 11:06:50.182,511.0
3312,2025-03-07 11:06:50.232,511.0
3313,2025-03-07 11:06:50.282,511.0
3314,2025-03-07 11:06:50.333,511.0
3315,2025-03-07 11:06:50.383,511.0
3316,2025-03-07 11:06:50.433,511.0
3317,2025-03-07 11:06:50.483,511.0
3318,2025-03-07 11:06:50.534,511.0
3319,2025-03-07 11:06:50.584,508.0
3320,2025-03-07 11:06:50.634,516.0
3321,2025-03-07 11:06:50.685,499.0
3322,2025-03-07 11:06:50.735,520.0
3323,2025-03-07 11:06:50.785,510.0
3324,2025-03-07 11:06:50.835,511.0
3325,2025-03-07 11:06:50.885,505.0
3326,2025-03-07 11:06:50.936,510.0
3327,2025-03-07 11:06:50.986,510.0
3328,2025-03-07 11:06:51.036,417.0
3329,2025-03-07 11:06:51.087,531.0
3330,2025-03-07 11:06:51.137,526.0
3331,2025-03-07 11:06:51.187,532.0
3332,2025-03-07 11:06:51.238,533.0
3333,2025-03-07 11:06:51.288,522.0
3334,2025-03-07 11:06:51.338,538.0
3335,2025-03-07 11:06:51.388,539.0
3336,2025-03-07 11:06:51.439,522.0
3337,2025-03-07 11:06:51.489,545.0
3338,2025-03-07 11:06:51.539,526.0
3339,2025-03-07 11:06:51.589,472.0
3340,2025-03-07 11:06:51.640,467.0
3341,2025-03-07 11:06:51.690,534.0
3342,2025-03-07 11:06:51.740,214.0
3343,2025-03-07 11:06:51.791,537.0
3344,2025-03-07 11:06:51.841,449.0
3345,2025-03-07 11:06:51.891,534.0
3346,2025-03-07 11:06:51.941,534.0
3347,2025-03-07 11:06:51.992,475.0
3348,2025-03-07 11:06:52.042,460.0
3349,2025-03-07 11:06:52.092,508.0
3350,2025-03-07 11:06:52.143,529.0
3351,2025-03-07 11:06:52.193,456.0
3352,2025-03-07 11:06:52.243,544.0
3353,2025-03-07 11:06:52.293,374.0
3354,2025-03-07 11:06:52.344,533.0
3355,2025-03-07 11:06:52.394,504.0
3356,2025-03-07 11:06:52.444,541.0
3357,2025-03-07 11:06:52.494,516.0
3358,2025-03-07 11:06:52.545,360.0
3359,2025-03-07 11:06:52.595,434.0
3360,2025-03-07 11:06:52.645,515.0
3361,2025-03-07 11:06:52.696,543.0
3362,2025-03-07 11:06:52.746,532.0
3363,2025-03-07 11:06:52.796,526.0
3364,2025-03-07 11:06:52.846,544.0
3365,2025-03-07 11:06:52.897,516.0
3366,2025-03-07 11:06:52.947,543.0
3367,2025-03-07 11:06:52.997,538.0
3368,2025-03-07 11:06:53.047,561.0
3369,2025-03-07 11:06:53.098,483.0
3370,2025-03-07 11:06:53.148,511.0
3371,2025-03-07 11:06:53.198,562.0
3372,2025-03-07 11:06:53.249,541.0
